samplenr,I,II,V1,V2,V3,V4,V5,V6,measurement
0,-33.75,-78.75,-3.75,-11.25,-63.75,-52.5,-97.5,-168.75,-56.666666666666664
1,-3.75,-41.25,-18.75,-22.5,-75,-63.75,-112.5,-176.25,-57.083333333333336
2,18.75,-18.75,-33.75,-37.5,-90,-78.75,-127.5,-187.5,-61.666666666666664
3,45,-15,-33.75,-33.75,-86.25,-78.75,-123.75,-183.75,-56.666666666666664
4,86.25,-26.25,-45,-45,-97.5,-90,-135,-187.5,-60.0
5,112.5,-48.75,-52.5,-52.5,-108.75,-105,-142.5,-198.75,-66.25
6,82.5,-63.75,-48.75,-52.5,-101.25,-97.5,-135,-191.25,-67.5
7,41.25,-63.75,-45,-48.75,-101.25,-93.75,-135,-195,-71.25
8,22.5,-75,-45,-52.5,-101.25,-97.5,-138.75,-202.5,-76.66666666666667
9,37.5,-71.25,-41.25,-45,-97.5,-93.75,-135,-198.75,-71.66666666666667
10,56.25,-52.5,-33.75,-33.75,-86.25,-82.5,-123.75,-187.5,-60.416666666666664
11,26.25,-52.5,-30,-30,-78.75,-75,-120,-180,-60.0
12,-15,-60,-15,-15,-60,-52.5,-93.75,-161.25,-52.5
13,-22.5,-67.5,3.75,3.75,-41.25,-33.75,-75,-138.75,-41.25
14,7.5,-52.5,0,0,-45,-41.25,-82.5,-146.25,-40.0
15,37.5,-45,-15,-18.75,-60,-56.25,-101.25,-161.25,-46.666666666666664
16,71.25,-56.25,-33.75,-33.75,-82.5,-75,-116.25,-176.25,-55.833333333333336
17,75,-78.75,-41.25,-41.25,-90,-86.25,-120,-180,-62.5
18,45,-101.25,-33.75,-37.5,-86.25,-82.5,-116.25,-172.5,-65.0
19,37.5,-112.5,-15,-26.25,-71.25,-67.5,-101.25,-161.25,-57.5
20,33.75,-120,-7.5,-18.75,-63.75,-63.75,-97.5,-157.5,-55.0
21,52.5,-90,-3.75,-7.5,-56.25,-52.5,-90,-150,-44.166666666666664
22,56.25,-82.5,3.75,0,-48.75,-45,-82.5,-142.5,-37.916666666666664
23,26.25,-97.5,7.5,0,-45,-37.5,-75,-142.5,-40.416666666666664
24,3.75,-90,3.75,-3.75,-45,-37.5,-78.75,-142.5,-43.333333333333336
25,3.75,-71.25,-7.5,-15,-60,-52.5,-93.75,-153.75,-50.0
26,11.25,-60,-15,-26.25,-67.5,-63.75,-105,-165,-54.583333333333336
27,7.5,-63.75,-22.5,-33.75,-75,-71.25,-116.25,-172.5,-60.833333333333336
28,33.75,-78.75,-37.5,-45,-90,-90,-127.5,-180,-68.33333333333333
29,82.5,-82.5,-45,-52.5,-101.25,-97.5,-131.25,-183.75,-67.91666666666667
30,93.75,-93.75,-41.25,-52.5,-101.25,-97.5,-131.25,-180,-67.08333333333333
31,67.5,-127.5,-22.5,-41.25,-86.25,-82.5,-112.5,-168.75,-63.75
32,56.25,-153.75,-15,-33.75,-78.75,-75,-105,-157.5,-62.5
33,71.25,-127.5,-22.5,-33.75,-82.5,-78.75,-105,-161.25,-60.0
34,45,-71.25,-26.25,-41.25,-86.25,-78.75,-105,-165,-58.75
35,-7.5,0,-37.5,-52.5,-93.75,-86.25,-116.25,-176.25,-63.333333333333336
36,-52.5,15,-41.25,-56.25,-97.5,-86.25,-120,-180,-68.75
37,-52.5,-33.75,-30,-48.75,-90,-78.75,-108.75,-168.75,-67.91666666666667
38,-22.5,-86.25,-18.75,-33.75,-75,-67.5,-97.5,-153.75,-61.666666666666664
39,3.75,-105,-26.25,-33.75,-75,-71.25,-101.25,-157.5,-62.916666666666664
40,33.75,-112.5,-41.25,-52.5,-93.75,-90,-116.25,-165,-70.83333333333333
41,63.75,-138.75,-41.25,-56.25,-101.25,-97.5,-120,-165,-72.91666666666667
42,52.5,-168.75,-22.5,-37.5,-82.5,-78.75,-105,-150,-65.83333333333333
43,37.5,-161.25,-18.75,-37.5,-82.5,-75,-101.25,-150,-65.41666666666667
44,48.75,-93.75,-41.25,-60,-105,-97.5,-123.75,-172.5,-71.66666666666667
45,41.25,-60,-60,-78.75,-123.75,-116.25,-142.5,-187.5,-80.83333333333333
46,15,-71.25,-56.25,-75,-120,-112.5,-138.75,-187.5,-82.91666666666667
47,-7.5,-67.5,-45,-67.5,-108.75,-101.25,-127.5,-183.75,-78.75
48,-18.75,-48.75,-41.25,-60,-101.25,-93.75,-123.75,-180,-74.16666666666667
49,-11.25,-48.75,-37.5,-60,-97.5,-90,-123.75,-172.5,-71.25
50,3.75,-52.5,-52.5,-71.25,-112.5,-101.25,-135,-183.75,-78.33333333333333
51,7.5,-33.75,-56.25,-78.75,-120,-108.75,-142.5,-187.5,-80.0
52,45,-41.25,-63.75,-86.25,-123.75,-112.5,-138.75,-183.75,-78.33333333333333
53,63.75,-75,-71.25,-97.5,-135,-127.5,-150,-191.25,-87.08333333333333
54,52.5,-78.75,-71.25,-101.25,-138.75,-127.5,-150,-195,-90.0
55,48.75,-90,-60,-93.75,-131.25,-116.25,-138.75,-191.25,-85.83333333333333
56,41.25,-116.25,-48.75,-78.75,-120,-105,-127.5,-180,-81.66666666666667
57,33.75,-135,-45,-78.75,-120,-105,-127.5,-180,-84.16666666666667
58,15,-142.5,-33.75,-67.5,-105,-93.75,-116.25,-168.75,-79.16666666666667
59,-11.25,-127.5,-22.5,-60,-97.5,-86.25,-112.5,-168.75,-76.25
60,-3.75,-78.75,-26.25,-63.75,-101.25,-90,-120,-172.5,-72.91666666666667
61,11.25,-30,-26.25,-63.75,-105,-93.75,-127.5,-180,-68.33333333333333
62,0,-3.75,-22.5,-60,-105,-93.75,-127.5,-180,-65.83333333333333
63,18.75,37.5,-26.25,-63.75,-108.75,-97.5,-131.25,-180,-61.25
64,67.5,75,-48.75,-90,-131.25,-123.75,-153.75,-198.75,-67.08333333333333
65,82.5,60,-56.25,-97.5,-138.75,-135,-161.25,-202.5,-72.08333333333333
66,33.75,-18.75,-22.5,-75,-116.25,-108.75,-135,-180,-69.16666666666667
67,18.75,-75,-7.5,-60,-105,-97.5,-123.75,-168.75,-68.75
68,30,-82.5,3.75,-52.5,-97.5,-90,-112.5,-161.25,-62.5
69,18.75,-82.5,18.75,-41.25,-86.25,-78.75,-97.5,-146.25,-55.0
70,-7.5,-82.5,30,-30,-75,-67.5,-93.75,-142.5,-52.083333333333336
71,-18.75,-97.5,41.25,-15,-60,-48.75,-78.75,-131.25,-45.416666666666664
72,-15,-90,56.25,0,-45,-33.75,-63.75,-120,-34.583333333333336
73,-11.25,11.25,41.25,-15,-60,-48.75,-86.25,-138.75,-34.166666666666664
74,-22.5,63.75,15,-41.25,-86.25,-82.5,-116.25,-168.75,-48.75
75,7.5,26.25,30,-30,-75,-67.5,-101.25,-153.75,-40.416666666666664
76,82.5,-3.75,48.75,-11.25,-56.25,-52.5,-82.5,-127.5,-22.5
77,101.25,-22.5,33.75,-26.25,-71.25,-67.5,-90,-135,-30.833333333333332
78,60,-22.5,15,-48.75,-93.75,-86.25,-112.5,-157.5,-49.583333333333336
79,52.5,7.5,11.25,-52.5,-97.5,-86.25,-112.5,-153.75,-47.916666666666664
80,71.25,15,15,-41.25,-78.75,-67.5,-90,-131.25,-34.166666666666664
81,71.25,-15,22.5,-22.5,-60,-45,-71.25,-112.5,-25.833333333333332
82,37.5,-18.75,30,-7.5,-41.25,-26.25,-52.5,-101.25,-20.0
83,-3.75,3.75,7.5,-18.75,-48.75,-30,-56.25,-108.75,-28.333333333333332
84,-18.75,33.75,-22.5,-37.5,-63.75,-48.75,-75,-123.75,-39.583333333333336
85,-3.75,82.5,-41.25,-56.25,-78.75,-63.75,-97.5,-142.5,-44.583333333333336
86,11.25,112.5,-56.25,-67.5,-90,-78.75,-105,-153.75,-47.5
87,48.75,112.5,-67.5,-75,-97.5,-78.75,-108.75,-150,-46.25
88,97.5,86.25,-82.5,-90,-112.5,-93.75,-120,-153.75,-52.083333333333336
89,97.5,26.25,-86.25,-105,-127.5,-108.75,-135,-165,-67.08333333333333
90,60,-15,-78.75,-97.5,-123.75,-105,-131.25,-161.25,-72.5
91,56.25,-22.5,-82.5,-101.25,-123.75,-105,-127.5,-161.25,-74.16666666666667
92,52.5,-52.5,-97.5,-116.25,-138.75,-120,-142.5,-168.75,-87.08333333333333
93,26.25,-105,-93.75,-120,-142.5,-123.75,-146.25,-172.5,-97.5
94,7.5,-116.25,-78.75,-108.75,-135,-112.5,-135,-165,-93.75
95,-3.75,-75,-71.25,-101.25,-127.5,-105,-127.5,-157.5,-85.41666666666667
96,-3.75,-26.25,-52.5,-90,-116.25,-93.75,-116.25,-146.25,-71.66666666666667
97,3.75,-3.75,-37.5,-75,-101.25,-78.75,-105,-135,-59.166666666666664
98,-3.75,7.5,-41.25,-75,-101.25,-82.5,-108.75,-135,-60.0
99,22.5,56.25,-52.5,-90,-116.25,-93.75,-116.25,-142.5,-59.166666666666664
100,67.5,56.25,-71.25,-112.5,-138.75,-120,-138.75,-161.25,-68.75
101,67.5,-15,-67.5,-112.5,-142.5,-123.75,-138.75,-161.25,-77.08333333333333
102,26.25,-71.25,-67.5,-116.25,-146.25,-127.5,-138.75,-168.75,-90.0
103,26.25,-86.25,-67.5,-123.75,-153.75,-135,-153.75,-183.75,-97.5
104,37.5,-105,-71.25,-127.5,-157.5,-138.75,-161.25,-191.25,-101.66666666666667
105,45,-120,-56.25,-116.25,-146.25,-123.75,-142.5,-176.25,-92.91666666666667
106,30,-135,-45,-105,-131.25,-108.75,-127.5,-161.25,-87.08333333333333
107,-15,-150,-45,-101.25,-131.25,-105,-123.75,-161.25,-92.5
108,-48.75,-138.75,-45,-105,-135,-108.75,-131.25,-168.75,-97.91666666666667
109,-52.5,-93.75,-52.5,-116.25,-142.5,-116.25,-142.5,-180,-99.58333333333333
110,-41.25,-63.75,-63.75,-127.5,-150,-131.25,-157.5,-191.25,-102.91666666666667
111,-15,-67.5,-67.5,-131.25,-157.5,-138.75,-161.25,-195,-103.75
112,11.25,-90,-71.25,-131.25,-161.25,-138.75,-161.25,-187.5,-103.33333333333333
113,22.5,-123.75,-75,-135,-168.75,-146.25,-161.25,-187.5,-108.33333333333333
114,22.5,-153.75,-78.75,-142.5,-176.25,-157.5,-172.5,-198.75,-117.5
115,18.75,-165,-82.5,-150,-187.5,-165,-180,-210,-124.58333333333333
116,7.5,-187.5,-78.75,-146.25,-183.75,-161.25,-176.25,-206.25,-125.83333333333333
117,7.5,-202.5,-67.5,-138.75,-172.5,-150,-165,-195,-120.41666666666667
118,-3.75,-168.75,-71.25,-142.5,-176.25,-150,-168.75,-198.75,-120.0
119,-71.25,-120,-67.5,-138.75,-168.75,-142.5,-161.25,-195,-118.33333333333333
120,-101.25,-75,-56.25,-123.75,-153.75,-127.5,-150,-187.5,-108.33333333333333
121,-67.5,-41.25,-71.25,-135,-161.25,-135,-161.25,-198.75,-107.91666666666667
122,-56.25,-37.5,-86.25,-150,-176.25,-153.75,-180,-213.75,-117.08333333333333
123,-30,-41.25,-97.5,-157.5,-183.75,-161.25,-187.5,-217.5,-119.58333333333333
124,22.5,-63.75,-93.75,-150,-180,-157.5,-180,-202.5,-111.66666666666667
125,33.75,-108.75,-78.75,-138.75,-172.5,-150,-168.75,-191.25,-108.33333333333333
126,-3.75,-135,-71.25,-138.75,-172.5,-150,-168.75,-191.25,-114.58333333333333
127,-11.25,-127.5,-71.25,-135,-168.75,-150,-165,-195,-113.75
128,-7.5,-135,-71.25,-135,-168.75,-150,-165,-195,-114.16666666666667
129,-18.75,-142.5,-71.25,-131.25,-165,-146.25,-165,-191.25,-114.58333333333333
130,-22.5,-131.25,-56.25,-116.25,-153.75,-135,-153.75,-180,-105.41666666666667
131,-37.5,-157.5,-30,-93.75,-135,-120,-142.5,-172.5,-98.75
132,-41.25,-191.25,-7.5,-63.75,-123.75,-120,-150,-183.75,-97.91666666666667
133,-33.75,-206.25,30,-26.25,-120,-138.75,-172.5,-206.25,-97.08333333333333
134,-37.5,-217.5,90,26.25,-123.75,-172.5,-217.5,-247.5,-100.0
135,-11.25,-228.75,165,90,-123.75,-206.25,-258.75,-288.75,-95.83333333333333
136,33.75,-217.5,232.5,150,-135,-247.5,-303.75,-326.25,-90.41666666666667
137,52.5,-157.5,277.5,191.25,-146.25,-288.75,-348.75,-363.75,-87.08333333333333
138,60,-123.75,330,266.25,-112.5,-277.5,-341.25,-363.75,-62.5
139,101.25,-112.5,401.25,378.75,-22.5,-206.25,-281.25,-311.25,-5.833333333333333
140,138.75,-67.5,472.5,495,82.5,-120,-202.5,-236.25,62.5
141,142.5,-11.25,525,588.75,180,-22.5,-108.75,-150,127.08333333333333
142,172.5,56.25,562.5,671.25,277.5,75,-11.25,-67.5,192.91666666666666
143,210,165,600,761.25,375,183.75,86.25,18.75,266.6666666666667
144,217.5,307.5,603.75,840,498.75,326.25,225,135,350.4166666666667
145,255,435,510,825,600,465,360,258.75,412.0833333333333
146,285,547.5,352.5,727.5,675,596.25,495,375,450.4166666666667
147,341.25,690,180,622.5,772.5,761.25,663.75,525,506.25
148,472.5,862.5,56.25,566.25,915,963.75,870,708.75,601.6666666666666
149,547.5,1065,-30,506.25,1053.75,1173.75,1087.5,900,700.4166666666666
150,521.25,1308.75,-168.75,311.25,1110,1357.5,1301.25,1102.5,760.4166666666666
151,480,1545,-431.25,-63.75,1053.75,1488.75,1496.25,1297.5,762.9166666666666
152,465,1721.25,-742.5,-495,967.5,1593.75,1661.25,1462.5,737.0833333333334
153,446.25,1822.5,-997.5,-825,937.5,1728.75,1826.25,1612.5,727.9166666666666
154,382.5,1826.25,-1173.75,-1027.5,960,1863.75,1965,1713.75,723.3333333333334
155,285,1800,-1233.75,-1110,1016.25,1980,2062.5,1758.75,728.75
156,217.5,1777.5,-1237.5,-1117.5,1083.75,2058.75,2100,1747.5,736.6666666666666
157,176.25,1747.5,-1301.25,-1166.25,1068.75,2036.25,2043.75,1665,696.6666666666666
158,116.25,1638.75,-1376.25,-1245,941.25,1871.25,1871.25,1503.75,591.25
159,52.5,1361.25,-1342.5,-1245,761.25,1590,1586.25,1256.25,446.6666666666667
160,7.5,1023.75,-1260,-1245,487.5,1196.25,1211.25,948.75,263.3333333333333
161,-15,742.5,-1226.25,-1335,90,716.25,795,637.5,45.0
162,-78.75,517.5,-1196.25,-1451.25,-337.5,236.25,397.5,356.25,-172.91666666666666
163,-153.75,345,-1132.5,-1500,-637.5,-120,90,131.25,-330.8333333333333
164,-176.25,247.5,-1038.75,-1410,-701.25,-262.5,-71.25,-7.5,-380.0
165,-165,202.5,-941.25,-1226.25,-611.25,-273.75,-142.5,-101.25,-362.0833333333333
166,-187.5,176.25,-843.75,-1042.5,-498.75,-247.5,-176.25,-161.25,-331.25
167,-221.25,123.75,-738.75,-873.75,-401.25,-191.25,-153.75,-161.25,-290.8333333333333
168,-195,71.25,-622.5,-723.75,-315,-120,-93.75,-116.25,-235.0
169,-142.5,63.75,-521.25,-585,-236.25,-52.5,-37.5,-67.5,-175.41666666666666
170,-108.75,41.25,-435,-450,-157.5,0,3.75,-33.75,-126.66666666666667
171,-75,-26.25,-352.5,-322.5,-75,52.5,45,0,-83.75
172,-11.25,-78.75,-273.75,-221.25,-11.25,93.75,82.5,33.75,-42.916666666666664
173,11.25,-30,-240,-176.25,-3.75,82.5,63.75,15,-30.833333333333332
174,3.75,78.75,-221.25,-157.5,-18.75,48.75,22.5,-30,-30.416666666666668
175,30,108.75,-172.5,-112.5,0,48.75,18.75,-41.25,-13.333333333333334
176,37.5,78.75,-131.25,-75,11.25,52.5,18.75,-41.25,-5.416666666666667
177,33.75,52.5,-108.75,-60,11.25,48.75,11.25,-45,-6.25
178,11.25,41.25,-75,-30,22.5,48.75,15,-45,-1.25
179,-52.5,18.75,-45,-3.75,33.75,52.5,15,-48.75,-3.3333333333333335
180,-97.5,-18.75,-26.25,11.25,33.75,52.5,7.5,-56.25,-10.416666666666666
181,-71.25,15,-26.25,11.25,26.25,37.5,-11.25,-71.25,-10.0
182,-37.5,75,-41.25,-3.75,0,7.5,-41.25,-97.5,-15.416666666666666
183,-22.5,75,-33.75,3.75,0,3.75,-48.75,-97.5,-13.333333333333334
184,33.75,52.5,-30,15,0,0,-45,-90,-7.083333333333333
185,71.25,11.25,-26.25,18.75,0,-7.5,-52.5,-90,-8.333333333333334
186,37.5,-41.25,-15,26.25,-3.75,-11.25,-56.25,-101.25,-18.333333333333332
187,15,-37.5,-11.25,26.25,-7.5,-22.5,-67.5,-112.5,-24.166666666666668
188,18.75,-7.5,-11.25,26.25,-15,-26.25,-71.25,-116.25,-22.5
189,26.25,0,-7.5,26.25,-15,-26.25,-71.25,-112.5,-20.0
190,7.5,-11.25,0,33.75,-11.25,-22.5,-63.75,-108.75,-19.583333333333332
191,-37.5,-15,7.5,41.25,-3.75,-15,-63.75,-108.75,-21.666666666666668
192,-48.75,11.25,18.75,60,11.25,0,-52.5,-97.5,-10.833333333333334
193,-22.5,33.75,22.5,67.5,18.75,7.5,-45,-90,-0.8333333333333334
194,-3.75,41.25,11.25,60,11.25,-3.75,-52.5,-97.5,-3.75
195,26.25,30,3.75,56.25,3.75,-11.25,-63.75,-105,-6.666666666666667
196,63.75,-7.5,3.75,56.25,0,-15,-63.75,-105,-7.5
197,67.5,-48.75,3.75,56.25,0,-22.5,-63.75,-105,-12.5
198,48.75,-75,7.5,60,-3.75,-18.75,-60,-101.25,-15.833333333333334
199,26.25,-82.5,26.25,75,11.25,-7.5,-52.5,-90,-10.416666666666666
200,11.25,-75,41.25,90,22.5,3.75,-41.25,-82.5,-3.3333333333333335
201,26.25,-45,45,93.75,30,7.5,-41.25,-82.5,3.75
202,15,-48.75,41.25,93.75,22.5,3.75,-48.75,-93.75,-1.6666666666666667
203,-22.5,-90,37.5,93.75,22.5,3.75,-48.75,-97.5,-11.25
204,-11.25,-90,48.75,108.75,41.25,26.25,-30,-75,2.0833333333333335
205,0,-41.25,52.5,116.25,52.5,37.5,-18.75,-67.5,14.583333333333334
206,0,30,33.75,101.25,37.5,18.75,-37.5,-86.25,10.833333333333334
207,15,67.5,15,86.25,22.5,3.75,-52.5,-97.5,6.666666666666667
208,48.75,60,7.5,86.25,15,0,-56.25,-97.5,7.083333333333333
209,52.5,18.75,15,90,18.75,0,-52.5,-97.5,5.0
210,26.25,-18.75,22.5,97.5,22.5,3.75,-45,-90,2.0833333333333335
211,37.5,-11.25,30,101.25,30,11.25,-37.5,-82.5,8.75
212,52.5,-3.75,26.25,105,30,11.25,-37.5,-82.5,11.25
213,56.25,3.75,22.5,105,30,11.25,-33.75,-82.5,12.5
214,37.5,22.5,22.5,105,33.75,15,-30,-82.5,13.75
215,-11.25,26.25,33.75,116.25,45,26.25,-26.25,-78.75,14.583333333333334
216,-48.75,15,45,131.25,63.75,41.25,-15,-71.25,17.916666666666668
217,-52.5,7.5,52.5,146.25,78.75,56.25,-3.75,-60,25.0
218,-11.25,11.25,60,161.25,90,67.5,7.5,-45,37.916666666666664
219,18.75,-7.5,60,165,90,67.5,11.25,-41.25,40.416666666666664
220,41.25,-30,63.75,172.5,97.5,71.25,15,-30,44.583333333333336
221,67.5,-45,60,168.75,90,63.75,11.25,-33.75,42.5
222,56.25,-60,63.75,172.5,93.75,63.75,11.25,-37.5,40.416666666666664
223,45,-48.75,67.5,176.25,97.5,71.25,15,-33.75,43.333333333333336
224,63.75,7.5,52.5,165,82.5,60,3.75,-52.5,42.5
225,60,-7.5,45,161.25,78.75,52.5,-7.5,-63.75,35.416666666666664
226,22.5,-86.25,63.75,183.75,101.25,75,11.25,-45,36.25
227,-15,-63.75,60,183.75,97.5,67.5,3.75,-60,30.416666666666668
228,-45,48.75,22.5,146.25,63.75,30,-37.5,-97.5,14.583333333333334
229,-33.75,131.25,7.5,135,60,26.25,-41.25,-101.25,20.416666666666668
230,30,195,22.5,161.25,82.5,56.25,-15,-75,50.833333333333336
231,75,198.75,30,180,101.25,71.25,3.75,-52.5,67.5
232,105,93.75,52.5,202.5,123.75,97.5,33.75,-22.5,76.25
233,108.75,-30,75,232.5,150,120,56.25,0,79.16666666666667
234,60,-48.75,71.25,228.75,142.5,112.5,52.5,-7.5,67.91666666666667
235,52.5,18.75,60,213.75,131.25,101.25,41.25,-18.75,66.66666666666667
236,90,56.25,63.75,225,142.5,112.5,48.75,-7.5,81.25
237,105,37.5,78.75,243.75,157.5,127.5,63.75,3.75,90.83333333333333
238,78.75,37.5,75,243.75,153.75,123.75,60,-3.75,85.41666666666667
239,30,75,71.25,240,153.75,120,60,-11.25,82.08333333333333
240,-7.5,86.25,75,247.5,161.25,127.5,60,-11.25,82.08333333333333
241,26.25,97.5,78.75,255,168.75,135,63.75,-3.75,91.25
242,63.75,101.25,78.75,262.5,172.5,138.75,67.5,3.75,98.75
243,67.5,93.75,75,258.75,168.75,131.25,63.75,0,95.41666666666667
244,108.75,112.5,63.75,247.5,157.5,116.25,48.75,-11.25,93.75
245,146.25,108.75,45,232.5,138.75,101.25,37.5,-18.75,87.91666666666667
246,112.5,63.75,48.75,240,146.25,105,45,-11.25,83.33333333333333
247,90,45,67.5,258.75,165,123.75,63.75,3.75,90.83333333333333
248,90,48.75,71.25,262.5,168.75,123.75,67.5,7.5,93.33333333333333
249,112.5,33.75,78.75,277.5,176.25,135,78.75,18.75,101.25
250,131.25,18.75,97.5,296.25,195,153.75,93.75,33.75,113.33333333333333
251,101.25,41.25,108.75,307.5,206.25,168.75,105,41.25,120.0
252,60,48.75,112.5,307.5,206.25,172.5,108.75,41.25,117.5
253,67.5,52.5,112.5,311.25,210,176.25,108.75,45,120.41666666666667
254,67.5,105,97.5,303.75,198.75,161.25,93.75,30,117.5
255,60,161.25,78.75,281.25,180,142.5,75,15,110.41666666666667
256,131.25,168.75,60,266.25,161.25,123.75,60,3.75,108.33333333333333
257,187.5,127.5,67.5,273.75,165,123.75,63.75,15,113.75
258,142.5,82.5,86.25,292.5,176.25,135,75,22.5,112.5
259,90,60,105,303.75,183.75,146.25,82.5,30,111.25
260,93.75,48.75,108.75,303.75,183.75,142.5,82.5,30,110.41666666666667
261,101.25,60,112.5,303.75,176.25,138.75,78.75,26.25,110.83333333333333
262,75,60,120,303.75,180,142.5,78.75,26.25,109.58333333333333
263,48.75,71.25,120,307.5,180,146.25,78.75,22.5,108.33333333333333
264,41.25,93.75,127.5,311.25,187.5,153.75,90,30,115.0
265,30,82.5,131.25,311.25,183.75,153.75,90,41.25,113.75
266,41.25,93.75,123.75,300,172.5,142.5,82.5,37.5,110.41666666666667
267,75,93.75,116.25,288.75,161.25,131.25,71.25,26.25,107.08333333333333
268,123.75,37.5,116.25,288.75,153.75,123.75,67.5,30,104.58333333333333
269,150,0,112.5,285,146.25,116.25,67.5,30,100.83333333333333
270,150,3.75,112.5,273.75,135,108.75,60,22.5,96.25
271,142.5,45,108.75,266.25,123.75,97.5,48.75,11.25,93.75
272,120,67.5,108.75,262.5,116.25,93.75,45,7.5,91.25
273,123.75,60,123.75,270,123.75,101.25,52.5,15,96.66666666666667
274,120,86.25,112.5,255,105,82.5,37.5,-3.75,88.33333333333333
275,63.75,112.5,112.5,243.75,97.5,75,30,-11.25,80.41666666666667
276,30,108.75,123.75,251.25,101.25,82.5,33.75,-3.75,80.83333333333333
277,26.25,90,135,258.75,108.75,86.25,37.5,3.75,82.91666666666667
278,33.75,75,127.5,251.25,97.5,78.75,30,-3.75,76.66666666666667
279,56.25,71.25,116.25,232.5,78.75,56.25,11.25,-15,67.5
280,116.25,75,105,221.25,63.75,45,3.75,-18.75,67.91666666666667
281,150,56.25,101.25,210,52.5,33.75,-3.75,-22.5,64.16666666666667
282,123.75,22.5,116.25,217.5,56.25,33.75,0,-22.5,60.833333333333336
283,123.75,15,131.25,228.75,67.5,45,7.5,-15,67.08333333333333
284,135,56.25,123.75,213.75,52.5,33.75,0,-26.25,65.41666666666667
285,120,71.25,108.75,191.25,33.75,18.75,-15,-37.5,54.583333333333336
286,86.25,41.25,123.75,198.75,41.25,26.25,-7.5,-30,53.333333333333336
287,22.5,18.75,138.75,206.25,48.75,33.75,-3.75,-26.25,48.75
288,-15,41.25,131.25,195,41.25,26.25,-15,-37.5,40.833333333333336
289,-3.75,90,123.75,187.5,33.75,18.75,-22.5,-45,42.5
290,11.25,112.5,135,191.25,37.5,22.5,-22.5,-41.25,49.583333333333336
291,22.5,101.25,150,202.5,52.5,33.75,-11.25,-26.25,58.333333333333336
292,52.5,63.75,146.25,195,41.25,22.5,-15,-30,52.916666666666664
293,71.25,26.25,142.5,180,26.25,11.25,-26.25,-33.75,44.166666666666664
294,48.75,-11.25,142.5,172.5,22.5,7.5,-26.25,-37.5,35.416666666666664
295,11.25,-60,161.25,187.5,37.5,22.5,-11.25,-26.25,35.833333333333336
296,7.5,-71.25,168.75,187.5,41.25,30,-3.75,-22.5,37.5
297,3.75,-22.5,150,161.25,18.75,7.5,-22.5,-41.25,28.333333333333332
298,-52.5,-3.75,135,146.25,7.5,-3.75,-37.5,-56.25,15.0
299,-97.5,0,150,157.5,22.5,11.25,-22.5,-48.75,19.166666666666668
300,-93.75,37.5,165,165,30,26.25,-15,-41.25,30.416666666666668
301,-78.75,63.75,157.5,153.75,26.25,22.5,-22.5,-48.75,30.416666666666668
302,-63.75,52.5,157.5,153.75,30,26.25,-18.75,-45,32.5
303,-52.5,37.5,150,146.25,26.25,18.75,-22.5,-45,28.75
304,-22.5,45,123.75,120,0,-3.75,-45,-56.25,17.916666666666668
305,7.5,48.75,101.25,93.75,-26.25,-30,-67.5,-75,5.833333333333333
306,0,-3.75,105,93.75,-26.25,-30,-63.75,-75,0.0
307,-11.25,-48.75,120,105,-11.25,-11.25,-41.25,-56.25,5.0
308,-7.5,-15,112.5,97.5,-18.75,-18.75,-52.5,-67.5,3.3333333333333335
309,-7.5,45,86.25,71.25,-41.25,-41.25,-78.75,-93.75,-6.666666666666667
310,-48.75,48.75,90,67.5,-37.5,-37.5,-75,-93.75,-9.583333333333334
311,-97.5,3.75,101.25,78.75,-26.25,-22.5,-63.75,-86.25,-12.5
312,-120,-30,120,93.75,-7.5,-3.75,-45,-63.75,-6.25
313,-123.75,-56.25,131.25,105,7.5,7.5,-37.5,-56.25,-2.5
314,-101.25,-45,120,90,-7.5,-7.5,-48.75,-71.25,-7.916666666666667
315,-82.5,15,86.25,56.25,-37.5,-33.75,-75,-93.75,-18.333333333333332
316,-41.25,41.25,60,30,-63.75,-52.5,-90,-101.25,-24.166666666666668
317,-15,15,56.25,26.25,-67.5,-56.25,-86.25,-101.25,-25.416666666666668
318,-30,-7.5,56.25,26.25,-63.75,-52.5,-82.5,-105,-28.75
319,-48.75,-22.5,52.5,18.75,-71.25,-60,-90,-112.5,-37.083333333333336
320,-63.75,-26.25,56.25,18.75,-67.5,-56.25,-86.25,-105,-36.666666666666664
321,-86.25,-18.75,56.25,18.75,-67.5,-56.25,-86.25,-101.25,-37.916666666666664
322,-97.5,15,52.5,7.5,-75,-63.75,-93.75,-112.5,-40.833333333333336
323,-127.5,30,56.25,11.25,-71.25,-60,-93.75,-108.75,-40.416666666666664
324,-161.25,15,78.75,30,-48.75,-37.5,-71.25,-90,-31.666666666666668
325,-153.75,37.5,82.5,33.75,-41.25,-30,-67.5,-78.75,-24.166666666666668
326,-135,67.5,71.25,22.5,-52.5,-37.5,-75,-90,-25.416666666666668
327,-127.5,67.5,52.5,7.5,-71.25,-60,-93.75,-112.5,-37.5
328,-97.5,71.25,37.5,-3.75,-78.75,-71.25,-101.25,-112.5,-39.583333333333336
329,-71.25,30,37.5,-3.75,-78.75,-71.25,-97.5,-108.75,-40.416666666666664
330,-101.25,-41.25,60,11.25,-63.75,-56.25,-82.5,-97.5,-41.25
331,-120,-52.5,78.75,30,-48.75,-37.5,-67.5,-78.75,-32.916666666666664
332,-86.25,-41.25,78.75,30,-41.25,-33.75,-63.75,-78.75,-26.25
333,-75,-63.75,75,30,-41.25,-30,-56.25,-71.25,-25.833333333333332
334,-105,-120,93.75,48.75,-22.5,-7.5,-33.75,-52.5,-22.083333333333332
335,-142.5,-150,120,75,3.75,18.75,-11.25,-33.75,-13.333333333333334
336,-168.75,-150,123.75,78.75,7.5,18.75,-11.25,-37.5,-15.416666666666666
337,-165,-131.25,116.25,75,7.5,18.75,-15,-41.25,-15.0
338,-161.25,-52.5,93.75,52.5,-15,-3.75,-33.75,-56.25,-19.583333333333332
339,-161.25,30,63.75,22.5,-41.25,-33.75,-63.75,-78.75,-29.166666666666668
340,-108.75,41.25,56.25,18.75,-48.75,-41.25,-67.5,-78.75,-25.416666666666668
341,-48.75,15,56.25,22.5,-45,-33.75,-60,-67.5,-17.916666666666668
342,-48.75,0,56.25,22.5,-45,-33.75,-60,-71.25,-20.0
343,-67.5,15,56.25,18.75,-48.75,-37.5,-67.5,-78.75,-23.333333333333332
344,-75,11.25,56.25,18.75,-48.75,-37.5,-63.75,-78.75,-24.166666666666668
345,-90,-41.25,75,37.5,-30,-18.75,-45,-60,-19.166666666666668
346,-120,-56.25,93.75,56.25,-11.25,-3.75,-33.75,-48.75,-13.75
347,-146.25,3.75,86.25,48.75,-18.75,-11.25,-41.25,-63.75,-15.833333333333334
348,-165,45,90,48.75,-15,-3.75,-41.25,-60,-11.25
349,-157.5,52.5,101.25,63.75,0,11.25,-26.25,-45,0.0
350,-150,41.25,93.75,56.25,-3.75,7.5,-33.75,-52.5,-4.583333333333333
351,-138.75,22.5,78.75,45,-15,-3.75,-45,-63.75,-13.333333333333334
352,-112.5,7.5,63.75,33.75,-30,-22.5,-60,-78.75,-22.083333333333332
353,-86.25,15,48.75,22.5,-45,-33.75,-67.5,-82.5,-25.416666666666668
354,-78.75,18.75,48.75,22.5,-45,-33.75,-63.75,-78.75,-23.333333333333332
355,-90,7.5,67.5,37.5,-26.25,-18.75,-48.75,-71.25,-15.833333333333334
356,-52.5,3.75,82.5,52.5,-7.5,3.75,-26.25,-48.75,0.8333333333333334
357,-33.75,-11.25,82.5,60,-3.75,7.5,-22.5,-41.25,4.166666666666667
358,-78.75,-11.25,82.5,56.25,-7.5,3.75,-30,-52.5,-4.166666666666667
359,-157.5,0,90,60,0,7.5,-26.25,-48.75,-8.333333333333334
360,-217.5,3.75,97.5,67.5,7.5,18.75,-18.75,-45,-9.583333333333334
361,-225,33.75,101.25,75,15,22.5,-15,-41.25,-3.75
362,-202.5,71.25,93.75,67.5,7.5,15,-26.25,-45,-2.0833333333333335
363,-157.5,75,82.5,60,0,7.5,-33.75,-52.5,-2.0833333333333335
364,-101.25,56.25,78.75,56.25,0,3.75,-33.75,-45,1.6666666666666667
365,-82.5,22.5,75,56.25,-3.75,0,-33.75,-41.25,-0.8333333333333334
366,-82.5,26.25,82.5,60,3.75,7.5,-22.5,-33.75,4.583333333333333
367,-86.25,22.5,86.25,63.75,7.5,11.25,-22.5,-33.75,5.416666666666667
368,-101.25,0,93.75,67.5,11.25,15,-18.75,-33.75,3.75
369,-116.25,7.5,90,63.75,3.75,11.25,-22.5,-37.5,0.0
370,-153.75,0,97.5,71.25,7.5,15,-18.75,-33.75,-1.6666666666666667
371,-176.25,0,105,75,11.25,18.75,-18.75,-37.5,-2.5
372,-176.25,26.25,90,60,-3.75,3.75,-33.75,-52.5,-9.583333333333334
373,-198.75,22.5,86.25,52.5,-7.5,0,-37.5,-52.5,-15.0
374,-191.25,7.5,97.5,67.5,7.5,18.75,-15,-30,-4.166666666666667
375,-153.75,33.75,93.75,71.25,11.25,22.5,-15,-26.25,4.166666666666667
376,-116.25,48.75,82.5,56.25,-3.75,3.75,-30,-37.5,0.4166666666666667
377,-90,37.5,71.25,48.75,-15,-7.5,-37.5,-48.75,-4.583333333333333
378,-116.25,18.75,71.25,41.25,-18.75,-11.25,-41.25,-56.25,-12.5
379,-142.5,15,63.75,33.75,-26.25,-18.75,-48.75,-60,-20.416666666666668
380,-116.25,41.25,71.25,37.5,-18.75,-11.25,-37.5,-48.75,-9.166666666666666
381,-86.25,52.5,97.5,63.75,7.5,18.75,-11.25,-26.25,12.916666666666666
382,-123.75,15,116.25,82.5,22.5,37.5,3.75,-11.25,15.833333333333334
383,-180,-11.25,123.75,90,33.75,45,11.25,-3.75,12.083333333333334
384,-195,-3.75,120,82.5,26.25,41.25,7.5,-15,7.083333333333333
385,-195,-7.5,120,86.25,30,45,7.5,-11.25,8.333333333333334
386,-202.5,22.5,112.5,78.75,22.5,37.5,0,-15,6.25
387,-195,60,105,67.5,11.25,26.25,-11.25,-26.25,4.166666666666667
388,-120,52.5,82.5,45,-11.25,0,-33.75,-45,-3.3333333333333335
389,-45,48.75,56.25,22.5,-33.75,-22.5,-48.75,-56.25,-8.75
390,-71.25,26.25,67.5,33.75,-22.5,-7.5,-33.75,-45,-5.833333333333333
391,-112.5,-3.75,86.25,48.75,-11.25,3.75,-22.5,-33.75,-5.0
392,-120,-22.5,93.75,48.75,-7.5,7.5,-22.5,-33.75,-6.25
393,-138.75,-48.75,105,63.75,3.75,22.5,-11.25,-22.5,-2.9166666666666665
394,-168.75,-60,112.5,71.25,15,30,0,-15,-1.6666666666666667
395,-210,-45,108.75,67.5,7.5,22.5,-7.5,-22.5,-8.75
396,-221.25,-15,108.75,63.75,3.75,22.5,-11.25,-30,-8.75
397,-213.75,37.5,90,41.25,-15,3.75,-30,-45,-14.583333333333334
398,-217.5,67.5,78.75,30,-22.5,-3.75,-37.5,-45,-16.666666666666668
399,-202.5,60,78.75,33.75,-18.75,0,-30,-37.5,-12.916666666666666
400,-153.75,52.5,67.5,26.25,-30,-15,-41.25,-41.25,-15.0
401,-131.25,7.5,56.25,15,-48.75,-30,-52.5,-52.5,-26.25
402,-142.5,-22.5,63.75,15,-45,-30,-56.25,-56.25,-30.416666666666668
403,-142.5,18.75,71.25,15,-41.25,-26.25,-52.5,-56.25,-23.75
404,-135,33.75,71.25,18.75,-45,-30,-56.25,-60,-22.5
405,-168.75,-18.75,71.25,18.75,-48.75,-33.75,-56.25,-60,-32.916666666666664
406,-206.25,-33.75,67.5,11.25,-48.75,-30,-48.75,-56.25,-38.333333333333336
407,-202.5,33.75,63.75,7.5,-52.5,-30,-52.5,-56.25,-32.083333333333336
408,-225,63.75,52.5,0,-56.25,-37.5,-63.75,-75,-37.916666666666664
409,-251.25,30,63.75,3.75,-52.5,-33.75,-63.75,-71.25,-41.666666666666664
410,-217.5,30,75,15,-41.25,-22.5,-52.5,-56.25,-30.0
411,-191.25,41.25,67.5,15,-41.25,-22.5,-52.5,-52.5,-26.25
412,-157.5,33.75,60,7.5,-48.75,-26.25,-52.5,-52.5,-26.25
413,-93.75,22.5,67.5,18.75,-41.25,-22.5,-41.25,-33.75,-13.75
414,-108.75,-26.25,97.5,41.25,-15,3.75,-15,-7.5,-3.3333333333333335
415,-161.25,-97.5,127.5,67.5,11.25,30,7.5,15,0.0
416,-165,-123.75,131.25,67.5,11.25,26.25,7.5,11.25,-3.75
417,-153.75,-22.5,93.75,30,-26.25,-11.25,-30,-30,-16.666666666666668
418,-168.75,108.75,56.25,-11.25,-63.75,-48.75,-71.25,-71.25,-30.0
419,-221.25,131.25,45,-22.5,-75,-56.25,-82.5,-82.5,-40.416666666666664
420,-258.75,101.25,67.5,0,-52.5,-33.75,-60,-60,-32.916666666666664
421,-270,45,93.75,26.25,-26.25,-7.5,-33.75,-33.75,-22.916666666666668
422,-262.5,11.25,105,37.5,-15,3.75,-22.5,-22.5,-18.333333333333332
423,-228.75,26.25,93.75,26.25,-26.25,-7.5,-33.75,-30,-20.0
424,-172.5,37.5,67.5,3.75,-48.75,-26.25,-52.5,-41.25,-25.833333333333332
425,-123.75,26.25,56.25,-3.75,-56.25,-37.5,-56.25,-41.25,-26.25
426,-127.5,18.75,63.75,3.75,-52.5,-33.75,-52.5,-41.25,-24.583333333333332
427,-165,0,71.25,3.75,-52.5,-33.75,-48.75,-41.25,-29.583333333333332
428,-183.75,-30,82.5,11.25,-41.25,-22.5,-41.25,-33.75,-28.75
429,-187.5,-37.5,93.75,22.5,-30,-11.25,-30,-18.75,-22.083333333333332
430,-206.25,-33.75,90,18.75,-33.75,-15,-30,-26.25,-26.25
431,-255,-56.25,90,15,-37.5,-15,-33.75,-33.75,-36.25
432,-300,-52.5,101.25,22.5,-26.25,-3.75,-26.25,-26.25,-34.583333333333336
433,-292.5,-3.75,93.75,18.75,-26.25,-7.5,-30,-26.25,-30.416666666666668
434,-270,18.75,82.5,7.5,-33.75,-15,-37.5,-33.75,-31.25
435,-228.75,22.5,78.75,7.5,-37.5,-18.75,-37.5,-30,-27.083333333333332
436,-183.75,-3.75,82.5,11.25,-33.75,-15,-37.5,-22.5,-22.5
437,-157.5,-37.5,86.25,18.75,-30,-11.25,-26.25,-11.25,-18.75
438,-176.25,-22.5,75,3.75,-45,-26.25,-37.5,-22.5,-27.916666666666668
439,-210,15,48.75,-22.5,-71.25,-56.25,-67.5,-52.5,-46.25
440,-213.75,7.5,52.5,-22.5,-71.25,-56.25,-67.5,-52.5,-47.083333333333336
441,-195,-30,75,-3.75,-52.5,-33.75,-48.75,-33.75,-35.833333333333336
442,-206.25,-48.75,82.5,3.75,-48.75,-33.75,-45,-33.75,-36.666666666666664
443,-255,-41.25,86.25,3.75,-45,-30,-45,-37.5,-40.416666666666664
444,-303.75,-41.25,90,7.5,-41.25,-26.25,-45,-37.5,-44.166666666666664
445,-296.25,-67.5,97.5,11.25,-33.75,-18.75,-41.25,-33.75,-42.5
446,-258.75,-90,93.75,15,-33.75,-18.75,-45,-30,-40.833333333333336
447,-240,-30,75,-3.75,-48.75,-37.5,-60,-45,-43.333333333333336
448,-213.75,60,48.75,-30,-71.25,-63.75,-82.5,-63.75,-46.25
449,-168.75,101.25,48.75,-30,-71.25,-63.75,-78.75,-56.25,-35.416666666666664
450,-165,97.5,60,-18.75,-60,-52.5,-63.75,-45,-27.5
451,-195,67.5,75,-3.75,-48.75,-37.5,-48.75,-30,-24.583333333333332
452,-198.75,48.75,90,7.5,-37.5,-22.5,-37.5,-18.75,-18.75
453,-198.75,33.75,93.75,11.25,-37.5,-22.5,-37.5,-18.75,-19.583333333333332
454,-236.25,18.75,97.5,11.25,-37.5,-26.25,-41.25,-30,-27.083333333333332
455,-296.25,33.75,112.5,18.75,-30,-18.75,-41.25,-33.75,-28.333333333333332
456,-326.25,48.75,127.5,33.75,-15,-7.5,-26.25,-22.5,-20.833333333333332
457,-303.75,48.75,135,37.5,-7.5,-3.75,-22.5,-18.75,-15.0
458,-247.5,71.25,138.75,45,-3.75,7.5,-11.25,-7.5,-0.8333333333333334
459,-232.5,71.25,150,52.5,7.5,18.75,0,11.25,8.75
460,-213.75,56.25,150,48.75,0,7.5,-11.25,3.75,4.583333333333333
461,-176.25,75,146.25,45,-7.5,-7.5,-22.5,-7.5,5.0
462,-213.75,75,153.75,48.75,-7.5,-7.5,-22.5,-11.25,1.6666666666666667
463,-247.5,48.75,153.75,48.75,-11.25,-7.5,-26.25,-15,-6.25
464,-240,33.75,153.75,52.5,-7.5,-3.75,-26.25,-11.25,-5.416666666666667
465,-217.5,45,157.5,56.25,0,3.75,-15,0,3.3333333333333335
466,-251.25,37.5,165,60,7.5,11.25,-7.5,7.5,3.3333333333333335
467,-307.5,37.5,180,75,18.75,30,7.5,18.75,6.666666666666667
468,-330,45,202.5,97.5,45,52.5,30,33.75,19.583333333333332
469,-337.5,41.25,213.75,112.5,56.25,63.75,41.25,45,26.25
470,-318.75,78.75,191.25,93.75,37.5,45,18.75,26.25,19.166666666666668
471,-270,138.75,161.25,71.25,18.75,22.5,0,11.25,17.083333333333332
472,-210,138.75,146.25,67.5,15,26.25,7.5,22.5,23.75
473,-165,112.5,138.75,71.25,22.5,33.75,18.75,41.25,30.416666666666668
474,-191.25,101.25,123.75,63.75,18.75,26.25,11.25,33.75,20.833333333333332
475,-210,112.5,90,33.75,-7.5,3.75,-11.25,3.75,1.6666666666666667
476,-180,108.75,82.5,30,-11.25,0,-11.25,3.75,2.5
477,-195,90,93.75,41.25,0,7.5,-3.75,15,5.416666666666667
478,-217.5,120,90,37.5,-3.75,7.5,-7.5,11.25,4.166666666666667
479,-225,176.25,78.75,26.25,-11.25,3.75,-7.5,3.75,5.0
480,-266.25,157.5,71.25,22.5,-11.25,7.5,-7.5,7.5,-2.0833333333333335
481,-285,71.25,71.25,18.75,-11.25,11.25,-3.75,15,-12.5
482,-240,56.25,52.5,3.75,-26.25,-7.5,-18.75,0,-20.0
483,-191.25,90,48.75,-3.75,-30,-11.25,-18.75,3.75,-12.5
484,-172.5,71.25,60,7.5,-22.5,3.75,0,26.25,-2.9166666666666665
485,-168.75,18.75,63.75,3.75,-26.25,-3.75,-3.75,26.25,-10.0
486,-183.75,18.75,63.75,-3.75,-37.5,-15,-18.75,11.25,-18.333333333333332
487,-206.25,52.5,71.25,3.75,-33.75,-11.25,-18.75,3.75,-15.416666666666666
488,-210,56.25,82.5,18.75,-18.75,0,-7.5,11.25,-7.5
489,-225,33.75,105,37.5,3.75,18.75,15,33.75,2.5
490,-266.25,-3.75,123.75,52.5,15,30,26.25,45,2.5
491,-307.5,-18.75,135,63.75,22.5,33.75,30,45,0.4166666666666667
492,-333.75,18.75,123.75,48.75,3.75,15,7.5,18.75,-10.833333333333334
493,-333.75,67.5,108.75,26.25,-15,-3.75,-15,-3.75,-18.75
494,-318.75,63.75,108.75,22.5,-15,-7.5,-18.75,-3.75,-18.75
495,-303.75,22.5,108.75,22.5,-15,-3.75,-15,0,-20.416666666666668
496,-258.75,-7.5,97.5,18.75,-22.5,-11.25,-18.75,0,-22.5
497,-221.25,-30,82.5,0,-41.25,-30,-33.75,-11.25,-31.666666666666668
498,-251.25,-41.25,67.5,-22.5,-63.75,-52.5,-56.25,-33.75,-50.416666666666664
499,-281.25,-33.75,63.75,-33.75,-75,-67.5,-67.5,-45,-60.0
500,-292.5,-37.5,63.75,-33.75,-78.75,-67.5,-67.5,-48.75,-62.5
501,-315,-60,71.25,-33.75,-78.75,-67.5,-67.5,-45,-66.25
502,-337.5,-86.25,71.25,-33.75,-78.75,-71.25,-71.25,-52.5,-73.33333333333333
503,-326.25,-48.75,82.5,-18.75,-63.75,-60,-60,-45,-60.0
504,-307.5,37.5,90,-11.25,-52.5,-45,-48.75,-33.75,-41.25
505,-345,56.25,86.25,-15,-56.25,-48.75,-52.5,-37.5,-45.833333333333336
506,-382.5,22.5,90,-7.5,-48.75,-41.25,-45,-22.5,-48.333333333333336
507,-333.75,3.75,97.5,3.75,-33.75,-26.25,-30,-7.5,-36.25
508,-258.75,-22.5,105,15,-26.25,-18.75,-26.25,3.75,-25.416666666666668
509,-243.75,-67.5,105,15,-30,-22.5,-26.25,3.75,-29.583333333333332
510,-266.25,-78.75,101.25,3.75,-37.5,-33.75,-30,-3.75,-38.333333333333336
511,-277.5,-56.25,78.75,-15,-60,-52.5,-48.75,-26.25,-50.833333333333336
512,-300,-60,75,-22.5,-67.5,-60,-60,-41.25,-59.583333333333336
513,-292.5,-41.25,78.75,-18.75,-63.75,-56.25,-60,-37.5,-54.583333333333336
514,-296.25,3.75,82.5,-15,-56.25,-48.75,-52.5,-30,-45.833333333333336
515,-356.25,11.25,86.25,-11.25,-52.5,-48.75,-52.5,-30,-50.416666666666664
516,-393.75,7.5,97.5,0,-41.25,-33.75,-41.25,-22.5,-47.5
517,-382.5,11.25,101.25,7.5,-33.75,-26.25,-30,-11.25,-40.416666666666664
518,-360,3.75,93.75,3.75,-33.75,-26.25,-30,-7.5,-39.583333333333336
519,-330,11.25,93.75,3.75,-33.75,-26.25,-30,-11.25,-35.833333333333336
520,-281.25,18.75,86.25,-3.75,-45,-37.5,-37.5,-15,-35.0
521,-247.5,3.75,82.5,-7.5,-52.5,-48.75,-45,-18.75,-37.083333333333336
522,-262.5,-26.25,97.5,3.75,-45,-48.75,-48.75,-26.25,-39.583333333333336
523,-296.25,-82.5,123.75,26.25,-41.25,-52.5,-56.25,-33.75,-45.833333333333336
524,-300,-112.5,161.25,63.75,-33.75,-63.75,-75,-56.25,-46.25
525,-281.25,-86.25,213.75,112.5,-37.5,-93.75,-112.5,-97.5,-42.5
526,-296.25,-75,285,172.5,-37.5,-123.75,-153.75,-142.5,-41.25
527,-348.75,-75,363.75,240,-33.75,-146.25,-187.5,-176.25,-40.416666666666664
528,-363.75,-52.5,442.5,311.25,-7.5,-142.5,-191.25,-176.25,-20.0
529,-322.5,-26.25,513.75,408.75,56.25,-105,-157.5,-146.25,24.583333333333332
530,-292.5,-18.75,577.5,510,131.25,-52.5,-112.5,-108.75,70.41666666666667
531,-255,22.5,626.25,600,206.25,3.75,-60,-60,120.41666666666667
532,-157.5,112.5,660,682.5,285,78.75,11.25,11.25,187.08333333333334
533,-78.75,153.75,682.5,742.5,360,157.5,86.25,82.5,242.91666666666666
534,-52.5,168.75,723.75,825,453.75,255,183.75,168.75,302.9166666666667
535,-33.75,262.5,738.75,915,562.5,375,296.25,266.25,375.8333333333333
536,3.75,423.75,678.75,922.5,652.5,491.25,416.25,367.5,439.5833333333333
537,30,543.75,558.75,855,727.5,622.5,551.25,487.5,486.25
538,52.5,652.5,420,776.25,828.75,783.75,716.25,633.75,540.4166666666666
539,90,825,300,723.75,960,975,907.5,795,619.5833333333334
540,116.25,1042.5,217.5,690,1095,1173.75,1106.25,971.25,712.5
541,146.25,1286.25,82.5,555,1170,1350,1301.25,1155,782.9166666666666
542,168.75,1545,-153.75,258.75,1155,1492.5,1492.5,1350,812.0833333333334
543,187.5,1747.5,-438.75,-108.75,1098.75,1608.75,1672.5,1537.5,811.6666666666666
544,240,1845,-690,-427.5,1068.75,1732.5,1833.75,1695,810.8333333333334
545,251.25,1841.25,-873.75,-641.25,1095,1867.5,1976.25,1815,814.5833333333334
546,161.25,1766.25,-963.75,-746.25,1147.5,1983.75,2081.25,1875,811.6666666666666
547,67.5,1691.25,-971.25,-772.5,1211.25,2070,2133.75,1875,811.6666666666666
548,30,1646.25,-1023.75,-825,1222.5,2081.25,2107.5,1815,783.75
549,-37.5,1571.25,-1132.5,-941.25,1117.5,1961.25,1976.25,1680,688.3333333333334
550,-157.5,1365,-1140,-990,948.75,1713.75,1717.5,1443.75,544.5833333333334
551,-288.75,1076.25,-1035,-967.5,727.5,1376.25,1380,1147.5,379.5833333333333
552,-401.25,828.75,-963.75,-1031.25,378.75,948.75,1001.25,866.25,180.83333333333334
553,-468.75,626.25,-941.25,-1162.5,-48.75,468.75,603.75,585,-37.5
554,-513.75,453.75,-907.5,-1245,-386.25,78.75,266.25,333.75,-213.33333333333334
555,-532.5,330,-832.5,-1203.75,-498.75,-101.25,82.5,180,-286.25
556,-487.5,243.75,-746.25,-1057.5,-446.25,-131.25,3.75,93.75,-280.8333333333333
557,-461.25,172.5,-667.5,-881.25,-341.25,-105,-15,52.5,-249.58333333333334
558,-465,127.5,-577.5,-723.75,-243.75,-52.5,3.75,56.25,-208.33333333333334
559,-442.5,116.25,-491.25,-600,-180,0,45,75,-164.16666666666666
560,-416.25,127.5,-416.25,-506.25,-150,22.5,63.75,86.25,-132.08333333333334
561,-405,123.75,-326.25,-390,-97.5,56.25,86.25,105,-94.16666666666667
562,-390,123.75,-228.75,-255,-11.25,112.5,135,138.75,-41.666666666666664
563,-397.5,127.5,-146.25,-135,67.5,168.75,180,176.25,4.583333333333333
564,-431.25,135,-90,-67.5,97.5,180,180,168.75,19.166666666666668
565,-416.25,176.25,-41.25,-15,116.25,180,168.75,161.25,36.666666666666664
566,-356.25,191.25,11.25,45,150,198.75,180,172.5,65.83333333333333
567,-311.25,183.75,63.75,93.75,176.25,210,187.5,176.25,86.66666666666667
568,-270,195,78.75,97.5,161.25,183.75,165,157.5,85.41666666666667
569,-232.5,176.25,78.75,93.75,142.5,157.5,138.75,138.75,77.08333333333333
570,-258.75,135,97.5,108.75,138.75,150,135,127.5,70.41666666666667
571,-277.5,142.5,116.25,123.75,138.75,146.25,127.5,116.25,70.41666666666667
572,-273.75,138.75,123.75,123.75,131.25,135,116.25,105,66.66666666666667
573,-277.5,86.25,135,135,131.25,123.75,108.75,97.5,60.0
574,-303.75,52.5,142.5,138.75,120,105,86.25,78.75,46.666666666666664
575,-352.5,63.75,142.5,131.25,105,86.25,63.75,60,33.333333333333336
576,-378.75,86.25,146.25,131.25,101.25,82.5,63.75,60,32.5
577,-371.25,97.5,146.25,138.75,101.25,86.25,63.75,60,35.833333333333336
578,-371.25,93.75,142.5,142.5,97.5,82.5,60,56.25,33.75
579,-367.5,101.25,142.5,142.5,97.5,82.5,56.25,52.5,34.166666666666664
580,-330,97.5,146.25,150,101.25,78.75,56.25,56.25,39.583333333333336
581,-303.75,45,146.25,153.75,97.5,75,52.5,56.25,35.833333333333336
582,-292.5,0,157.5,161.25,101.25,75,56.25,56.25,35.0
583,-296.25,7.5,176.25,180,116.25,93.75,71.25,75,47.083333333333336
584,-311.25,0,187.5,191.25,123.75,105,82.5,86.25,51.666666666666664
585,-300,-52.5,206.25,206.25,138.75,123.75,108.75,108.75,60.0
586,-307.5,-41.25,210,213.75,142.5,127.5,108.75,105,62.083333333333336
587,-348.75,60,187.5,191.25,120,101.25,78.75,67.5,50.833333333333336
588,-378.75,105,183.75,183.75,112.5,93.75,67.5,52.5,46.666666666666664
589,-390,86.25,187.5,187.5,116.25,93.75,63.75,52.5,44.166666666666664
590,-375,105,172.5,176.25,101.25,78.75,52.5,45,39.583333333333336
591,-360,120,168.75,180,108.75,86.25,60,60,47.083333333333336
592,-315,93.75,180,195,120,97.5,78.75,78.75,58.75
593,-236.25,82.5,176.25,195,116.25,93.75,75,78.75,64.58333333333333
594,-225,90,176.25,191.25,112.5,90,75,75,65.0
595,-277.5,75,176.25,191.25,112.5,90,71.25,71.25,56.666666666666664
596,-288.75,63.75,183.75,198.75,116.25,93.75,71.25,71.25,56.666666666666664
597,-266.25,75,176.25,187.5,101.25,78.75,56.25,56.25,51.666666666666664
598,-296.25,67.5,168.75,180,97.5,71.25,45,45,42.083333333333336
599,-337.5,67.5,187.5,202.5,116.25,93.75,71.25,60,51.25
600,-330,112.5,198.75,217.5,131.25,108.75,86.25,75,66.66666666666667
601,-348.75,142.5,191.25,213.75,131.25,112.5,86.25,78.75,67.5
602,-378.75,123.75,191.25,221.25,138.75,116.25,90,82.5,65.0
603,-363.75,101.25,195,228.75,146.25,123.75,97.5,90,68.75
604,-326.25,112.5,198.75,236.25,150,127.5,101.25,97.5,77.5
605,-266.25,131.25,202.5,243.75,153.75,131.25,108.75,105,90.0
606,-221.25,142.5,202.5,247.5,157.5,135,112.5,108.75,98.33333333333333
607,-225,131.25,206.25,247.5,157.5,138.75,116.25,108.75,97.91666666666667
608,-262.5,93.75,221.25,262.5,172.5,153.75,131.25,123.75,99.58333333333333
609,-281.25,67.5,228.75,273.75,180,165,142.5,135,101.25
610,-300,71.25,221.25,270,176.25,157.5,131.25,123.75,94.58333333333333
611,-330,112.5,213.75,266.25,176.25,153.75,131.25,116.25,93.33333333333333
612,-341.25,131.25,213.75,266.25,176.25,161.25,135,120,95.83333333333333
613,-333.75,90,228.75,285,198.75,176.25,150,135,103.33333333333333
614,-326.25,60,236.25,296.25,210,187.5,157.5,146.25,107.5
615,-315,101.25,228.75,292.5,202.5,180,150,135,108.33333333333333
616,-281.25,123.75,217.5,288.75,195,172.5,142.5,131.25,110.0
617,-247.5,97.5,206.25,277.5,183.75,157.5,135,127.5,104.16666666666667
618,-251.25,97.5,206.25,277.5,183.75,153.75,127.5,120,101.66666666666667
619,-281.25,101.25,206.25,277.5,183.75,153.75,131.25,120,99.16666666666667
620,-300,90,202.5,273.75,180,150,127.5,116.25,93.33333333333333
621,-288.75,75,210,288.75,191.25,161.25,135,123.75,99.58333333333333
622,-285,63.75,221.25,303.75,202.5,172.5,146.25,135,106.66666666666667
623,-296.25,93.75,225,311.25,210,180,153.75,138.75,112.91666666666667
624,-307.5,168.75,213.75,303.75,206.25,180,150,131.25,116.25
625,-315,213.75,202.5,300,206.25,180,146.25,131.25,118.33333333333333
626,-311.25,183.75,206.25,307.5,213.75,187.5,150,135,119.16666666666667
627,-300,112.5,210,315,221.25,195,157.5,138.75,116.66666666666667
628,-270,71.25,210,322.5,228.75,198.75,165,150,119.58333333333333
629,-270,37.5,210,326.25,228.75,198.75,176.25,161.25,118.75
630,-273.75,30,217.5,330,236.25,206.25,183.75,168.75,122.08333333333333
631,-232.5,78.75,232.5,348.75,255,228.75,202.5,183.75,144.16666666666666
632,-217.5,112.5,240,360,266.25,240,210,191.25,155.83333333333334
633,-213.75,131.25,236.25,360,262.5,236.25,206.25,183.75,155.83333333333334
634,-228.75,142.5,232.5,356.25,262.5,232.5,206.25,183.75,154.16666666666666
635,-273.75,142.5,228.75,348.75,255,228.75,202.5,180,145.83333333333334
636,-307.5,157.5,232.5,356.25,262.5,236.25,206.25,183.75,147.5
637,-281.25,202.5,236.25,363.75,270,243.75,213.75,191.25,160.0
638,-258.75,213.75,236.25,367.5,273.75,247.5,206.25,187.5,163.75
639,-273.75,210,228.75,363.75,266.25,232.5,191.25,165,153.75
640,-236.25,240,206.25,341.25,240,206.25,165,146.25,145.41666666666666
641,-161.25,221.25,187.5,330,225,191.25,157.5,142.5,143.75
642,-172.5,142.5,198.75,341.25,236.25,202.5,172.5,157.5,142.08333333333334
643,-206.25,150,225,360,258.75,225,198.75,180,154.58333333333334
644,-225,187.5,221.25,360,255,225,198.75,180,155.83333333333334
645,-217.5,161.25,210,348.75,243.75,217.5,187.5,172.5,147.08333333333334
646,-213.75,142.5,221.25,360,255,225,198.75,180,152.08333333333334
647,-266.25,157.5,232.5,378.75,273.75,240,213.75,195,158.33333333333334
648,-300,183.75,243.75,382.5,277.5,251.25,221.25,198.75,162.08333333333334
649,-322.5,176.25,251.25,386.25,273.75,255,225,202.5,160.83333333333334
650,-322.5,172.5,247.5,386.25,270,247.5,217.5,195,157.08333333333334
651,-285,198.75,228.75,371.25,255,232.5,202.5,187.5,154.58333333333334
652,-225,206.25,217.5,360,247.5,221.25,195,183.75,156.25
653,-176.25,165,225,371.25,251.25,225,198.75,195,161.66666666666666
654,-161.25,150,240,378.75,258.75,232.5,210,202.5,167.91666666666666
655,-180,180,243.75,375,255,232.5,213.75,202.5,169.16666666666666
656,-217.5,191.25,232.5,356.25,236.25,213.75,191.25,183.75,154.16666666666666
657,-228.75,135,225,352.5,221.25,198.75,180,172.5,139.58333333333334
658,-236.25,78.75,240,360,232.5,210,191.25,180,139.58333333333334
659,-270,131.25,247.5,356.25,228.75,206.25,187.5,176.25,140.41666666666666
660,-296.25,180,247.5,352.5,217.5,198.75,176.25,165,137.91666666666666
661,-292.5,157.5,258.75,360,225,206.25,187.5,176.25,142.08333333333334
662,-266.25,157.5,262.5,371.25,236.25,213.75,195,187.5,150.83333333333334
663,-255,176.25,262.5,375,236.25,213.75,191.25,191.25,154.58333333333334
664,-225,168.75,251.25,360,217.5,195,176.25,183.75,147.5
665,-183.75,135,247.5,345,198.75,180,168.75,180,141.25
666,-195,90,251.25,341.25,195,176.25,168.75,180,134.16666666666666
667,-225,82.5,251.25,337.5,191.25,172.5,168.75,176.25,128.33333333333334
668,-228.75,123.75,240,326.25,176.25,161.25,161.25,168.75,125.41666666666667
669,-232.5,146.25,232.5,315,161.25,150,153.75,165,121.25
670,-240,135,247.5,318.75,165,157.5,161.25,172.5,124.16666666666667
671,-243.75,138.75,266.25,330,172.5,168.75,176.25,183.75,132.5
672,-270,142.5,273.75,337.5,180,176.25,180,183.75,133.75
673,-277.5,146.25,277.5,337.5,183.75,176.25,172.5,180,132.91666666666666
674,-273.75,146.25,281.25,333.75,180,168.75,165,172.5,130.41666666666666
675,-266.25,153.75,266.25,318.75,157.5,150,146.25,157.5,120.41666666666667
676,-225,165,240,288.75,131.25,120,123.75,138.75,109.16666666666667
677,-202.5,127.5,236.25,277.5,120,108.75,116.25,135,102.08333333333333
678,-228.75,82.5,255,288.75,127.5,116.25,123.75,142.5,100.83333333333333
679,-262.5,82.5,262.5,292.5,131.25,120,127.5,146.25,100.0
680,-258.75,105,262.5,285,120,112.5,120,135,97.91666666666667
681,-255,127.5,262.5,281.25,116.25,108.75,116.25,131.25,98.75
682,-277.5,142.5,270,285,123.75,116.25,123.75,138.75,102.5
683,-326.25,127.5,273.75,285,127.5,116.25,123.75,138.75,96.25
684,-367.5,86.25,285,288.75,131.25,116.25,123.75,135,88.75
685,-378.75,37.5,292.5,292.5,135,123.75,127.5,138.75,85.41666666666667
686,-356.25,37.5,300,296.25,138.75,127.5,131.25,142.5,90.83333333333333
687,-315,105,288.75,277.5,123.75,112.5,120,135,94.16666666666667
688,-281.25,161.25,266.25,258.75,105,97.5,105,123.75,92.91666666666667
689,-270,146.25,251.25,243.75,93.75,86.25,97.5,116.25,85.0
690,-288.75,123.75,251.25,240,93.75,82.5,93.75,108.75,78.33333333333333
691,-322.5,108.75,255,236.25,90,86.25,93.75,101.25,72.08333333333333
692,-356.25,90,255,228.75,86.25,82.5,86.25,93.75,62.916666666666664
693,-371.25,90,266.25,236.25,90,82.5,90,97.5,64.58333333333333
694,-382.5,90,266.25,228.75,90,82.5,86.25,97.5,62.083333333333336
695,-382.5,108.75,273.75,228.75,93.75,86.25,90,97.5,66.25
696,-405,131.25,288.75,247.5,112.5,101.25,105,112.5,77.08333333333333
697,-416.25,116.25,285,247.5,116.25,101.25,101.25,112.5,73.75
698,-393.75,101.25,277.5,240,108.75,97.5,97.5,105,70.41666666666667
699,-378.75,112.5,270,228.75,101.25,90,90,97.5,67.91666666666667
700,-345,127.5,258.75,213.75,90,78.75,82.5,90,66.25
701,-326.25,97.5,240,195,71.25,63.75,71.25,82.5,55.0
702,-348.75,67.5,236.25,187.5,71.25,63.75,71.25,82.5,47.916666666666664
703,-378.75,101.25,232.5,180,67.5,63.75,71.25,78.75,46.25
704,-378.75,142.5,225,176.25,63.75,67.5,75,82.5,50.416666666666664
705,-363.75,135,225,172.5,63.75,67.5,75,86.25,51.25
706,-378.75,101.25,236.25,180,71.25,75,82.5,90,50.833333333333336
707,-412.5,75,255,195,90,90,97.5,101.25,54.583333333333336
708,-438.75,86.25,258.75,198.75,93.75,93.75,97.5,101.25,54.583333333333336
709,-450,97.5,258.75,198.75,97.5,93.75,97.5,105,55.416666666666664
710,-442.5,67.5,270,202.5,105,101.25,105,116.25,58.333333333333336
711,-450,-7.5,281.25,217.5,120,116.25,116.25,123.75,57.5
712,-427.5,-18.75,273.75,206.25,105,105,108.75,120,52.5
713,-386.25,15,236.25,168.75,71.25,71.25,78.75,97.5,39.166666666666664
714,-375,7.5,221.25,153.75,60,56.25,71.25,86.25,31.25
715,-405,7.5,236.25,165,67.5,67.5,82.5,93.75,35.0
716,-427.5,15,232.5,153.75,63.75,67.5,78.75,90,30.416666666666668
717,-405,26.25,236.25,157.5,71.25,71.25,78.75,90,36.25
718,-408.75,45,255,176.25,82.5,78.75,86.25,93.75,45.416666666666664
719,-457.5,48.75,255,176.25,86.25,82.5,86.25,93.75,41.25
720,-487.5,48.75,247.5,168.75,78.75,82.5,82.5,86.25,34.166666666666664
721,-498.75,52.5,243.75,161.25,75,78.75,78.75,82.5,30.416666666666668
722,-491.25,60,243.75,165,78.75,82.5,86.25,90,35.0
723,-476.25,56.25,240,165,78.75,82.5,86.25,93.75,36.25
724,-431.25,63.75,236.25,161.25,75,75,78.75,90,38.75
725,-386.25,63.75,225,150,63.75,60,71.25,82.5,36.666666666666664
726,-390,60,217.5,146.25,56.25,52.5,63.75,75,31.25
727,-401.25,71.25,221.25,146.25,56.25,52.5,63.75,75,31.666666666666668
728,-408.75,52.5,221.25,142.5,60,56.25,67.5,78.75,30.0
729,-416.25,37.5,228.75,153.75,71.25,67.5,78.75,90,34.583333333333336
730,-427.5,45,236.25,165,82.5,78.75,86.25,97.5,40.416666666666664
731,-468.75,33.75,240,165,82.5,82.5,90,101.25,36.25
732,-506.25,37.5,240,168.75,90,93.75,97.5,105,36.25
733,-498.75,63.75,243.75,180,101.25,101.25,105,108.75,45.0
734,-461.25,86.25,247.5,187.5,108.75,105,108.75,108.75,54.583333333333336
735,-450,78.75,243.75,180,101.25,97.5,101.25,101.25,50.416666666666664
736,-435,97.5,225,157.5,82.5,78.75,86.25,93.75,42.916666666666664
737,-412.5,153.75,195,123.75,48.75,48.75,56.25,67.5,31.25
738,-408.75,176.25,180,116.25,37.5,33.75,37.5,45,24.166666666666668
739,-420,157.5,187.5,123.75,45,41.25,45,48.75,25.416666666666668
740,-438.75,112.5,202.5,135,52.5,52.5,56.25,63.75,26.25
741,-450,67.5,213.75,150,67.5,63.75,75,78.75,29.583333333333332
742,-453.75,45,232.5,165,86.25,82.5,93.75,101.25,39.166666666666664
743,-472.5,15,251.25,187.5,112.5,112.5,120,123.75,50.0
744,-506.25,3.75,270,210,138.75,138.75,142.5,142.5,60.0
745,-495,41.25,281.25,217.5,146.25,150,153.75,150,71.66666666666667
746,-472.5,30,277.5,217.5,150,150,153.75,150,72.91666666666667
747,-453.75,18.75,277.5,221.25,153.75,153.75,153.75,157.5,75.83333333333333
748,-405,75,258.75,206.25,135,135,138.75,142.5,76.25
749,-356.25,112.5,228.75,176.25,105,105,108.75,116.25,66.25
750,-386.25,93.75,217.5,161.25,86.25,86.25,93.75,97.5,50.0
751,-416.25,101.25,217.5,157.5,82.5,82.5,90,97.5,45.833333333333336
752,-408.75,97.5,228.75,172.5,97.5,93.75,105,112.5,55.416666666666664
753,-416.25,63.75,236.25,176.25,105,101.25,108.75,116.25,54.583333333333336
754,-416.25,52.5,236.25,180,105,105,112.5,120,55.0
755,-427.5,26.25,255,202.5,131.25,131.25,138.75,146.25,67.08333333333333
756,-472.5,7.5,273.75,217.5,150,150,153.75,157.5,70.83333333333333
757,-476.25,90,262.5,210,138.75,142.5,138.75,142.5,72.08333333333333
758,-438.75,153.75,243.75,191.25,120,123.75,123.75,127.5,71.66666666666667
759,-453.75,93.75,247.5,195,123.75,123.75,127.5,131.25,65.41666666666667
760,-450,56.25,255,202.5,127.5,123.75,123.75,135,63.75
761,-397.5,63.75,247.5,191.25,116.25,112.5,112.5,131.25,64.16666666666667
762,-416.25,48.75,236.25,183.75,108.75,105,112.5,127.5,56.25
763,-446.25,37.5,236.25,183.75,108.75,108.75,112.5,123.75,51.666666666666664
764,-427.5,33.75,251.25,187.5,112.5,116.25,123.75,131.25,58.75
765,-431.25,52.5,243.75,183.75,108.75,108.75,116.25,123.75,56.25
766,-446.25,93.75,236.25,180,105,108.75,112.5,116.25,56.25
767,-480,97.5,247.5,183.75,112.5,116.25,123.75,123.75,58.333333333333336
768,-525,86.25,258.75,195,120,127.5,131.25,131.25,58.333333333333336
769,-536.25,97.5,262.5,202.5,127.5,131.25,131.25,138.75,61.666666666666664
770,-513.75,108.75,255,198.75,123.75,127.5,131.25,138.75,63.333333333333336
771,-480,127.5,243.75,187.5,116.25,116.25,120,135,62.916666666666664
772,-453.75,112.5,232.5,172.5,101.25,105,108.75,127.5,56.25
773,-416.25,60,221.25,157.5,86.25,90,101.25,120,46.666666666666664
774,-405,26.25,225,157.5,86.25,86.25,101.25,120,44.166666666666664
775,-423.75,37.5,236.25,165,93.75,93.75,108.75,120,47.916666666666664
776,-435,67.5,232.5,161.25,90,93.75,105,112.5,47.5
777,-435,78.75,225,157.5,82.5,90,101.25,108.75,45.416666666666664
778,-461.25,75,225,153.75,82.5,90,101.25,101.25,40.833333333333336
779,-502.5,112.5,228.75,150,82.5,86.25,97.5,97.5,39.166666666666664
780,-513.75,168.75,225,150,86.25,90,97.5,101.25,45.0
781,-491.25,191.25,213.75,146.25,78.75,86.25,93.75,105,47.083333333333336
782,-491.25,180,210,142.5,78.75,82.5,86.25,101.25,43.333333333333336
783,-483.75,161.25,213.75,146.25,78.75,86.25,90,108.75,44.583333333333336
784,-435,168.75,210,142.5,78.75,86.25,93.75,112.5,50.833333333333336
785,-397.5,131.25,206.25,131.25,67.5,75,90,116.25,46.666666666666664
786,-416.25,7.5,228.75,153.75,90,97.5,112.5,135,45.416666666666664
787,-442.5,-37.5,251.25,176.25,108.75,112.5,127.5,142.5,48.75
788,-442.5,7.5,243.75,161.25,93.75,101.25,116.25,131.25,45.833333333333336
789,-431.25,41.25,236.25,150,78.75,90,105,123.75,43.75
790,-442.5,63.75,228.75,138.75,71.25,78.75,97.5,112.5,38.75
791,-491.25,63.75,221.25,127.5,60,71.25,86.25,105,27.083333333333332
792,-521.25,71.25,213.75,120,56.25,67.5,78.75,97.5,20.416666666666668
793,-528.75,101.25,206.25,120,56.25,63.75,75,93.75,20.833333333333332
794,-540,116.25,195,108.75,45,48.75,60,82.5,12.916666666666666
795,-540,127.5,195,108.75,48.75,56.25,67.5,93.75,17.5
796,-472.5,142.5,206.25,123.75,63.75,75,90,120,38.75
797,-416.25,108.75,206.25,123.75,60,71.25,90,120,40.416666666666664
798,-427.5,26.25,210,120,56.25,67.5,90,116.25,28.75
799,-438.75,-41.25,228.75,135,75,86.25,108.75,131.25,31.666666666666668
800,-431.25,-18.75,240,146.25,86.25,101.25,123.75,142.5,43.333333333333336
801,-416.25,52.5,236.25,142.5,82.5,93.75,120,138.75,50.0
802,-427.5,60,236.25,138.75,75,86.25,112.5,123.75,45.0
803,-498.75,26.25,243.75,142.5,75,90,108.75,123.75,34.583333333333336
804,-558.75,18.75,251.25,150,86.25,101.25,120,135,33.75
805,-551.25,-7.5,255,157.5,97.5,112.5,131.25,146.25,37.916666666666664
806,-517.5,-37.5,262.5,168.75,108.75,123.75,138.75,157.5,45.0
807,-517.5,0,251.25,150,93.75,101.25,120,142.5,37.916666666666664
808,-491.25,71.25,221.25,116.25,60,67.5,86.25,112.5,27.083333333333332
809,-446.25,86.25,202.5,101.25,41.25,48.75,71.25,105,23.333333333333332
810,-438.75,63.75,191.25,86.25,26.25,37.5,60,93.75,13.333333333333334
811,-453.75,60,191.25,86.25,26.25,37.5,63.75,90,11.25
812,-457.5,67.5,195,90,30,41.25,67.5,93.75,14.166666666666666
813,-461.25,63.75,213.75,105,45,60,82.5,112.5,24.583333333333332
814,-495,26.25,221.25,112.5,52.5,67.5,86.25,116.25,20.833333333333332
815,-547.5,11.25,225,112.5,52.5,63.75,82.5,108.75,12.083333333333334
816,-573.75,30,225,112.5,56.25,71.25,90,108.75,13.333333333333334
817,-566.25,48.75,228.75,116.25,60,78.75,97.5,120,20.416666666666668
818,-547.5,52.5,225,116.25,63.75,78.75,97.5,123.75,23.333333333333332
819,-551.25,37.5,217.5,108.75,56.25,71.25,90,116.25,16.25
820,-536.25,37.5,206.25,97.5,41.25,60,75,101.25,9.166666666666666
821,-468.75,48.75,187.5,78.75,22.5,37.5,56.25,90,5.833333333333333
822,-453.75,37.5,187.5,75,18.75,33.75,56.25,93.75,5.416666666666667
823,-491.25,33.75,195,82.5,26.25,41.25,63.75,93.75,5.0
824,-480,78.75,202.5,86.25,30,48.75,67.5,97.5,14.583333333333334
825,-453.75,97.5,191.25,75,18.75,33.75,56.25,82.5,11.25
826,-472.5,78.75,191.25,71.25,15,30,48.75,75,4.166666666666667
827,-513.75,93.75,198.75,78.75,18.75,33.75,56.25,78.75,5.0
828,-551.25,131.25,198.75,75,18.75,37.5,56.25,78.75,5.0
829,-566.25,146.25,195,75,18.75,41.25,60,82.5,5.833333333333333
830,-555,123.75,191.25,75,18.75,41.25,60,86.25,4.583333333333333
831,-543.75,86.25,195,75,22.5,41.25,56.25,82.5,1.6666666666666667
832,-510,56.25,210,86.25,30,48.75,63.75,93.75,8.75
833,-476.25,-7.5,213.75,90,30,48.75,67.5,105,7.916666666666667
834,-495,-60,206.25,90,30,45,67.5,108.75,-0.8333333333333334
835,-498.75,-52.5,210,93.75,33.75,56.25,82.5,120,5.0
836,-461.25,-33.75,221.25,105,45,71.25,97.5,135,20.0
837,-438.75,-11.25,232.5,116.25,52.5,78.75,101.25,135,29.583333333333332
838,-480,-7.5,228.75,108.75,48.75,71.25,93.75,123.75,20.833333333333332
839,-570,-26.25,228.75,108.75,45,67.5,90,120,7.083333333333333
840,-633.75,-18.75,236.25,112.5,48.75,75,93.75,120,3.75
841,-630,15,221.25,101.25,41.25,63.75,82.5,105,0.0
842,-558.75,60,210,93.75,33.75,60,78.75,108.75,9.583333333333334
843,-525,75,213.75,97.5,41.25,60,78.75,112.5,17.083333333333332
844,-510,86.25,198.75,93.75,30,48.75,67.5,105,13.333333333333334
845,-453.75,108.75,180,75,11.25,33.75,52.5,101.25,12.083333333333334
846,-431.25,116.25,172.5,63.75,3.75,26.25,48.75,90,10.0
847,-453.75,90,187.5,75,11.25,33.75,52.5,90,9.583333333333334
848,-457.5,63.75,210,86.25,22.5,41.25,60,101.25,14.166666666666666
849,-476.25,75,198.75,75,11.25,30,48.75,90,5.833333333333333
850,-525,82.5,191.25,71.25,7.5,26.25,45,82.5,-2.0833333333333335
851,-573.75,45,210,86.25,22.5,45,63.75,97.5,-0.4166666666666667
852,-588.75,18.75,225,108.75,45,75,93.75,123.75,11.25
853,-566.25,15,240,120,60,90,112.5,146.25,24.166666666666668
854,-558.75,41.25,236.25,116.25,56.25,86.25,101.25,135,23.75
855,-562.5,67.5,217.5,101.25,41.25,71.25,82.5,112.5,14.583333333333334
856,-521.25,56.25,206.25,90,30,56.25,75,108.75,11.25
857,-468.75,37.5,198.75,86.25,22.5,48.75,71.25,112.5,12.083333333333334
858,-476.25,18.75,198.75,82.5,18.75,45,67.5,105,6.666666666666667
859,-517.5,18.75,202.5,82.5,18.75,45,63.75,97.5,1.25
860,-528.75,22.5,202.5,86.25,18.75,45,63.75,93.75,0.4166666666666667
861,-540,-7.5,221.25,101.25,33.75,60,78.75,112.5,6.666666666666667
862,-558.75,-33.75,247.5,120,48.75,75,93.75,127.5,13.333333333333334
863,-588.75,-3.75,255,120,52.5,78.75,93.75,127.5,15.0
864,-596.25,67.5,262.5,131.25,63.75,86.25,105,135,28.333333333333332
865,-566.25,105,270,142.5,71.25,97.5,112.5,146.25,42.083333333333336
866,-562.5,97.5,273.75,142.5,75,101.25,116.25,153.75,44.166666666666664
867,-558.75,105,277.5,142.5,75,105,120,153.75,46.666666666666664
868,-513.75,131.25,273.75,138.75,71.25,97.5,116.25,150,51.666666666666664
869,-472.5,123.75,266.25,131.25,60,86.25,97.5,138.75,47.916666666666664
870,-476.25,93.75,262.5,131.25,56.25,78.75,97.5,131.25,41.666666666666664
871,-506.25,82.5,266.25,127.5,56.25,78.75,97.5,127.5,36.666666666666664
872,-510,90,262.5,123.75,52.5,67.5,82.5,116.25,31.666666666666668
873,-495,86.25,262.5,123.75,48.75,67.5,82.5,116.25,32.5
874,-506.25,75,270,131.25,56.25,75,93.75,127.5,35.833333333333336
875,-540,93.75,277.5,135,56.25,75,90,123.75,34.583333333333336
876,-558.75,135,277.5,135,56.25,71.25,86.25,116.25,35.416666666666664
877,-566.25,161.25,277.5,138.75,60,75,90,120,39.583333333333336
878,-566.25,138.75,281.25,146.25,71.25,86.25,101.25,135,43.75
879,-562.5,101.25,292.5,153.75,78.75,97.5,105,142.5,45.416666666666664
880,-517.5,82.5,285,157.5,86.25,101.25,112.5,150,50.833333333333336
881,-468.75,71.25,273.75,157.5,93.75,112.5,131.25,172.5,60.416666666666664
882,-472.5,90,258.75,161.25,97.5,120,138.75,176.25,63.333333333333336
883,-476.25,112.5,247.5,157.5,97.5,123.75,142.5,172.5,64.16666666666667
884,-487.5,101.25,236.25,142.5,90,120,138.75,172.5,57.083333333333336
885,-502.5,90,221.25,127.5,71.25,105,127.5,161.25,44.583333333333336
886,-491.25,90,217.5,135,78.75,108.75,131.25,165,48.333333333333336
887,-498.75,75,221.25,142.5,90,116.25,138.75,172.5,50.833333333333336
888,-528.75,112.5,206.25,123.75,75,101.25,123.75,153.75,40.833333333333336
889,-543.75,172.5,165,86.25,41.25,67.5,90,123.75,22.5
890,-536.25,165,161.25,78.75,37.5,67.5,90,131.25,21.666666666666668
891,-510,138.75,180,101.25,60,93.75,116.25,161.25,37.916666666666664
892,-450,93.75,198.75,116.25,75,108.75,135,180,50.833333333333336
893,-420,3.75,213.75,123.75,75,108.75,138.75,187.5,47.916666666666664
894,-461.25,-3.75,206.25,105,56.25,86.25,116.25,165,30.0
895,-506.25,71.25,183.75,82.5,30,60,90,131.25,15.833333333333334
896,-510,93.75,180,82.5,26.25,52.5,78.75,116.25,13.333333333333334
897,-483.75,90,195,93.75,37.5,60,82.5,123.75,22.083333333333332
898,-495,60,210,108.75,52.5,75,101.25,138.75,27.916666666666668
899,-547.5,33.75,217.5,116.25,60,86.25,108.75,146.25,24.583333333333332
900,-566.25,71.25,221.25,120,63.75,93.75,112.5,146.25,29.166666666666668
901,-543.75,97.5,225,120,67.5,93.75,112.5,150,35.833333333333336
902,-536.25,93.75,221.25,112.5,60,86.25,105,146.25,32.083333333333336
903,-555,78.75,210,101.25,45,71.25,90,131.25,19.166666666666668
904,-536.25,82.5,198.75,93.75,37.5,60,78.75,123.75,15.416666666666666
905,-476.25,86.25,176.25,71.25,11.25,30,48.75,97.5,5.0
906,-468.75,56.25,165,48.75,-11.25,11.25,33.75,82.5,-9.166666666666666
907,-510,41.25,168.75,52.5,-7.5,15,37.5,86.25,-12.916666666666666
908,-540,33.75,180,60,0,22.5,48.75,97.5,-10.833333333333334
909,-540,26.25,176.25,48.75,-11.25,11.25,37.5,86.25,-18.333333333333332
910,-562.5,-3.75,176.25,48.75,-11.25,11.25,37.5,86.25,-24.166666666666668
911,-592.5,-15,195,67.5,7.5,30,52.5,93.75,-17.916666666666668
912,-630,-15,198.75,71.25,11.25,33.75,56.25,97.5,-19.583333333333332
913,-645,-15,198.75,75,15,41.25,63.75,105,-17.916666666666668
914,-607.5,-3.75,202.5,78.75,22.5,45,67.5,116.25,-8.75
915,-555,22.5,198.75,78.75,26.25,48.75,71.25,116.25,0.8333333333333334
916,-495,37.5,195,78.75,26.25,48.75,71.25,116.25,8.75
917,-453.75,11.25,195,75,22.5,41.25,67.5,120,8.75
918,-480,-15,191.25,71.25,11.25,33.75,60,112.5,-1.6666666666666667
919,-502.5,-11.25,180,60,3.75,22.5,45,93.75,-12.083333333333334
920,-491.25,-7.5,180,60,3.75,18.75,41.25,86.25,-12.083333333333334
921,-495,-18.75,187.5,71.25,11.25,26.25,48.75,93.75,-8.333333333333334
922,-536.25,-18.75,195,71.25,15,30,52.5,97.5,-10.416666666666666
923,-596.25,15,191.25,63.75,11.25,26.25,48.75,93.75,-16.25
924,-652.5,22.5,195,71.25,18.75,37.5,56.25,97.5,-17.083333333333332
925,-648.75,22.5,210,82.5,30,48.75,71.25,112.5,-7.916666666666667
926,-603.75,33.75,210,90,37.5,56.25,78.75,120,2.5
927,-603.75,15,206.25,86.25,37.5,52.5,75,116.25,-1.6666666666666667
928,-581.25,11.25,202.5,82.5,30,48.75,71.25,108.75,-2.9166666666666665
929,-513.75,11.25,191.25,75,22.5,33.75,56.25,101.25,-2.5
930,-491.25,-30,191.25,75,15,22.5,48.75,90,-8.75
931,-502.5,-75,217.5,101.25,22.5,22.5,45,86.25,-9.166666666666666
932,-517.5,-105,258.75,142.5,33.75,18.75,33.75,71.25,-7.083333333333333
933,-513.75,-75,315,195,41.25,-3.75,3.75,37.5,0.0
934,-506.25,-56.25,378.75,255,41.25,-30,-37.5,0,5.0
935,-536.25,-93.75,461.25,326.25,60,-45,-60,-26.25,9.583333333333334
936,-581.25,-101.25,536.25,401.25,86.25,-45,-67.5,-37.5,21.25
937,-558.75,-41.25,592.5,483.75,135,-15,-48.75,-18.75,58.75
938,-502.5,33.75,641.25,573.75,202.5,30,-15,11.25,108.33333333333333
939,-468.75,93.75,671.25,652.5,270,78.75,30,48.75,152.91666666666666
940,-405,157.5,693.75,731.25,348.75,153.75,97.5,120,210.83333333333334
941,-345,172.5,727.5,810,438.75,247.5,195,213.75,273.3333333333333
942,-311.25,168.75,765,888.75,528.75,341.25,292.5,300,330.4166666666667
943,-255,228.75,798.75,997.5,656.25,476.25,420,412.5,415.0
944,-165,363.75,787.5,1068.75,787.5,630,570,551.25,510.4166666666667
945,-105,603.75,678.75,1005,836.25,723.75,667.5,633.75,560.4166666666666
946,-112.5,810,521.25,885,862.5,810,761.25,712.5,583.3333333333334
947,-112.5,881.25,423.75,832.5,967.5,982.5,941.25,870,642.9166666666666
948,-71.25,997.5,401.25,855,1125,1196.25,1162.5,1072.5,748.75
949,-45,1215,315,772.5,1211.25,1376.25,1365,1271.25,831.25
950,-18.75,1466.25,97.5,532.5,1203.75,1511.25,1548.75,1462.5,867.0833333333334
951,15,1672.5,-157.5,232.5,1173.75,1635,1728.75,1646.25,882.9166666666666
952,18.75,1773.75,-401.25,-71.25,1143.75,1747.5,1875,1788.75,875.0
953,41.25,1822.5,-596.25,-311.25,1147.5,1863.75,2002.5,1893.75,873.75
954,7.5,1807.5,-690,-420,1192.5,1972.5,2103.75,1950,880.4166666666666
955,-105,1710,-686.25,-442.5,1256.25,2055,2148.75,1942.5,875.4166666666666
956,-180,1631.25,-723.75,-517.5,1263.75,2070,2133.75,1890,840.8333333333334
957,-243.75,1548.75,-828.75,-652.5,1173.75,1972.5,2025,1777.5,752.5
958,-341.25,1342.5,-851.25,-727.5,1008.75,1740,1781.25,1556.25,612.0833333333334
959,-480,1046.25,-757.5,-735,791.25,1413.75,1455,1278.75,445.8333333333333
960,-596.25,828.75,-690,-798.75,480,1016.25,1095,1001.25,259.5833333333333
961,-663.75,675,-686.25,-926.25,105,581.25,723.75,731.25,60.0
962,-723.75,472.5,-667.5,-1012.5,-191.25,232.5,420,502.5,-107.5
963,-750,311.25,-615,-990,-307.5,56.25,240,348.75,-189.58333333333334
964,-720,228.75,-551.25,-892.5,-300,-3.75,135,236.25,-207.5
965,-663.75,161.25,-502.5,-776.25,-247.5,-15,82.5,165,-199.58333333333334
966,-641.25,116.25,-457.5,-648.75,-172.5,22.5,93.75,153.75,-170.41666666666666
967,-637.5,101.25,-390,-525,-97.5,82.5,138.75,183.75,-127.08333333333333
968,-630,97.5,-318.75,-438.75,-75,97.5,157.5,198.75,-101.25
969,-622.5,93.75,-262.5,-371.25,-71.25,90,153.75,198.75,-87.91666666666667
970,-600,101.25,-198.75,-277.5,-37.5,105,161.25,202.5,-60.416666666666664
971,-577.5,146.25,-120,-161.25,37.5,150,195,228.75,-11.25
972,-588.75,195,-45,-60,105,198.75,232.5,255,32.5
973,-607.5,202.5,11.25,3.75,142.5,217.5,243.75,262.5,52.916666666666664
974,-603.75,187.5,60,60,168.75,225,243.75,262.5,67.08333333333333
975,-577.5,183.75,105,105,187.5,228.75,240,255,80.83333333333333
976,-521.25,198.75,131.25,123.75,187.5,213.75,225,247.5,89.58333333333333
977,-461.25,195,146.25,135,180,202.5,217.5,243.75,95.41666666666667
978,-468.75,142.5,165,150,180,195,210,232.5,89.58333333333333
979,-491.25,105,183.75,161.25,176.25,187.5,198.75,217.5,82.08333333333333
980,-487.5,127.5,187.5,161.25,165,172.5,180,195,77.91666666666667
981,-487.5,131.25,176.25,142.5,138.75,138.75,146.25,161.25,60.833333333333336
982,-521.25,93.75,187.5,150,135,135,142.5,157.5,53.333333333333336
983,-570,60,217.5,180,157.5,157.5,165,183.75,61.25
984,-581.25,60,243.75,206.25,180,180,183.75,198.75,74.58333333333333
985,-562.5,75,255,221.25,191.25,183.75,187.5,202.5,83.75
986,-551.25,71.25,251.25,221.25,187.5,180,187.5,202.5,83.33333333333333
987,-547.5,60,247.5,221.25,180,172.5,183.75,202.5,80.0
988,-525,41.25,251.25,221.25,176.25,168.75,176.25,198.75,78.75
989,-487.5,26.25,247.5,217.5,165,157.5,161.25,191.25,75.41666666666667
990,-483.75,22.5,236.25,206.25,150,138.75,142.5,172.5,65.0
991,-513.75,22.5,236.25,202.5,142.5,131.25,138.75,165,58.333333333333336
992,-510,37.5,251.25,217.5,157.5,146.25,150,180,70.0
993,-491.25,45,251.25,217.5,153.75,142.5,150,180,72.08333333333333
994,-513.75,26.25,247.5,213.75,150,138.75,146.25,172.5,64.58333333333333
995,-555,22.5,255,225,157.5,146.25,153.75,168.75,63.75
996,-581.25,22.5,262.5,232.5,165,150,153.75,168.75,63.75
997,-596.25,22.5,270,240,176.25,161.25,161.25,176.25,67.91666666666667
998,-581.25,52.5,270,240,172.5,161.25,157.5,180,72.5
999,-562.5,86.25,251.25,225,153.75,138.75,138.75,161.25,65.83333333333333
1000,-528.75,90,243.75,217.5,142.5,131.25,127.5,157.5,64.58333333333333
1001,-480,63.75,243.75,221.25,146.25,131.25,131.25,165,69.16666666666667
1002,-450,63.75,236.25,213.75,138.75,120,120,150,65.83333333333333
1003,-442.5,123.75,236.25,217.5,138.75,120,123.75,153.75,74.58333333333333
1004,-450,161.25,243.75,225,146.25,135,142.5,168.75,85.83333333333333
1005,-453.75,138.75,247.5,232.5,157.5,146.25,153.75,176.25,88.75
1006,-472.5,90,258.75,247.5,168.75,157.5,165,183.75,88.75
1007,-506.25,78.75,273.75,262.5,187.5,176.25,180,198.75,94.58333333333333
1008,-536.25,90,273.75,266.25,191.25,183.75,183.75,198.75,94.58333333333333
1009,-540,93.75,273.75,270,195,187.5,183.75,202.5,96.25
1010,-536.25,78.75,273.75,270,195,187.5,183.75,198.75,94.58333333333333
1011,-536.25,67.5,273.75,273.75,198.75,187.5,183.75,202.5,94.58333333333333
1012,-517.5,71.25,270,273.75,195,180,180,198.75,94.58333333333333
1013,-461.25,86.25,258.75,266.25,187.5,172.5,168.75,195,97.08333333333333
1014,-442.5,67.5,251.25,262.5,183.75,168.75,168.75,195,95.0
1015,-468.75,33.75,258.75,270,187.5,172.5,172.5,198.75,91.66666666666667
1016,-461.25,60,258.75,270,187.5,172.5,172.5,198.75,95.41666666666667
1017,-453.75,97.5,251.25,262.5,187.5,172.5,172.5,195,98.33333333333333
1018,-476.25,63.75,266.25,281.25,202.5,187.5,187.5,210,102.5
1019,-506.25,26.25,277.5,300,217.5,198.75,195,217.5,102.91666666666667
1020,-517.5,75,273.75,296.25,213.75,195,187.5,202.5,102.91666666666667
1021,-521.25,138.75,270,296.25,213.75,198.75,195,210,111.25
1022,-498.75,150,270,303.75,225,210,206.25,228.75,121.66666666666667
1023,-506.25,135,277.5,311.25,232.5,213.75,210,232.5,122.91666666666667
1024,-487.5,153.75,266.25,303.75,221.25,202.5,195,217.5,119.16666666666667
1025,-412.5,168.75,247.5,292.5,210,191.25,183.75,210,121.25
1026,-386.25,142.5,247.5,292.5,210,191.25,187.5,210,121.66666666666667
1027,-401.25,97.5,258.75,303.75,221.25,202.5,202.5,221.25,122.91666666666667
1028,-420,52.5,285,330,243.75,228.75,228.75,243.75,132.5
1029,-442.5,52.5,300,348.75,262.5,247.5,243.75,255,140.83333333333334
1030,-438.75,116.25,281.25,330,243.75,225,221.25,232.5,134.58333333333334
1031,-457.5,127.5,273.75,326.25,240,217.5,213.75,225,129.58333333333334
1032,-487.5,93.75,292.5,348.75,258.75,240,232.5,240,135.41666666666666
1033,-498.75,116.25,296.25,360,270,251.25,240,251.25,142.91666666666666
1034,-491.25,150,281.25,348.75,262.5,243.75,232.5,247.5,141.66666666666666
1035,-487.5,127.5,277.5,352.5,270,251.25,240,255,142.91666666666666
1036,-446.25,97.5,277.5,356.25,277.5,255,251.25,270,148.75
1037,-386.25,56.25,277.5,356.25,273.75,251.25,251.25,273.75,150.41666666666666
1038,-375,15,277.5,360,273.75,251.25,251.25,266.25,146.66666666666666
1039,-378.75,48.75,273.75,356.25,270,243.75,243.75,255,145.83333333333334
1040,-367.5,101.25,277.5,360,273.75,251.25,243.75,255,155.0
1041,-393.75,93.75,281.25,367.5,277.5,255,247.5,258.75,154.16666666666666
1042,-446.25,97.5,281.25,367.5,281.25,255,251.25,262.5,150.0
1043,-487.5,108.75,288.75,378.75,288.75,270,266.25,273.75,154.16666666666666
1044,-513.75,97.5,303.75,397.5,303.75,281.25,277.5,285,159.16666666666666
1045,-487.5,131.25,292.5,390,296.25,273.75,262.5,270,158.75
1046,-435,187.5,285,386.25,292.5,270,262.5,270,168.75
1047,-420,183.75,277.5,378.75,288.75,266.25,255,266.25,166.25
1048,-401.25,168.75,262.5,367.5,277.5,251.25,240,251.25,157.5
1049,-371.25,161.25,251.25,360,266.25,243.75,236.25,251.25,155.41666666666666
1050,-363.75,150,251.25,360,266.25,243.75,240,251.25,155.41666666666666
1051,-363.75,157.5,258.75,360,266.25,243.75,243.75,255,157.91666666666666
1052,-363.75,176.25,262.5,363.75,262.5,243.75,243.75,255,160.41666666666666
1053,-371.25,172.5,266.25,367.5,266.25,243.75,243.75,255,160.41666666666666
1054,-386.25,146.25,273.75,371.25,266.25,243.75,243.75,255,157.08333333333334
1055,-431.25,131.25,281.25,378.75,273.75,255,255,262.5,156.25
1056,-468.75,146.25,277.5,378.75,277.5,262.5,258.75,270,155.83333333333334
1057,-491.25,172.5,266.25,371.25,270,255,251.25,262.5,150.83333333333334
1058,-483.75,180,270,378.75,273.75,258.75,255,266.25,155.41666666666666
1059,-420,165,292.5,401.25,296.25,285,281.25,296.25,177.5
1060,-348.75,135,311.25,420,311.25,300,300,318.75,194.16666666666666
1061,-303.75,123.75,300,405,296.25,281.25,288.75,311.25,189.16666666666666
1062,-311.25,135,277.5,378.75,266.25,251.25,258.75,285,171.25
1063,-337.5,135,277.5,371.25,255,240,247.5,270,162.08333333333334
1064,-337.5,150,285,375,255,243.75,251.25,273.75,166.25
1065,-345,165,288.75,375,255,247.5,255,277.5,168.75
1066,-352.5,123.75,285,367.5,243.75,236.25,243.75,266.25,157.08333333333334
1067,-363.75,93.75,292.5,367.5,243.75,240,247.5,266.25,154.16666666666666
1068,-397.5,120,303.75,375,251.25,247.5,251.25,270,157.91666666666666
1069,-420,153.75,303.75,375,247.5,247.5,251.25,270,158.75
1070,-412.5,176.25,296.25,363.75,232.5,232.5,240,262.5,154.58333333333334
1071,-393.75,202.5,277.5,341.25,206.25,206.25,213.75,243.75,144.16666666666666
1072,-367.5,210,266.25,326.25,187.5,187.5,195,232.5,137.5
1073,-326.25,157.5,270,326.25,191.25,191.25,202.5,243.75,139.58333333333334
1074,-303.75,93.75,288.75,341.25,206.25,206.25,225,266.25,147.08333333333334
1075,-303.75,71.25,296.25,341.25,202.5,210,228.75,270,146.25
1076,-315,30,300,341.25,198.75,206.25,225,266.25,139.16666666666666
1077,-330,26.25,307.5,348.75,202.5,210,232.5,270,140.83333333333334
1078,-371.25,105,292.5,322.5,176.25,183.75,206.25,243.75,128.75
1079,-408.75,138.75,288.75,311.25,165,172.5,195,236.25,122.08333333333333
1080,-435,116.25,303.75,318.75,172.5,180,206.25,247.5,123.33333333333333
1081,-427.5,138.75,307.5,322.5,176.25,183.75,202.5,243.75,127.5
1082,-420,157.5,300,311.25,165,172.5,191.25,240,124.16666666666667
1083,-420,142.5,288.75,300,150,157.5,180,232.5,114.58333333333333
1084,-390,120,292.5,296.25,146.25,153.75,180,228.75,114.16666666666667
1085,-341.25,93.75,292.5,292.5,142.5,150,176.25,225,114.58333333333333
1086,-348.75,56.25,296.25,288.75,138.75,142.5,168.75,221.25,107.08333333333333
1087,-375,45,296.25,281.25,131.25,135,161.25,213.75,98.75
1088,-375,67.5,296.25,277.5,123.75,127.5,157.5,206.25,97.91666666666667
1089,-382.5,75,296.25,273.75,120,123.75,153.75,202.5,95.83333333333333
1090,-408.75,56.25,303.75,277.5,123.75,127.5,153.75,206.25,93.33333333333333
1091,-461.25,63.75,311.25,273.75,120,123.75,146.25,195,85.83333333333333
1092,-506.25,112.5,307.5,266.25,112.5,112.5,131.25,176.25,79.16666666666667
1093,-513.75,146.25,300,255,101.25,105,120,161.25,75.0
1094,-502.5,138.75,303.75,255,105,108.75,123.75,168.75,77.91666666666667
1095,-513.75,105,303.75,258.75,112.5,112.5,127.5,176.25,75.83333333333333
1096,-498.75,78.75,307.5,258.75,112.5,112.5,131.25,180,75.83333333333333
1097,-412.5,86.25,315,262.5,120,120,138.75,187.5,90.83333333333333
1098,-371.25,101.25,311.25,258.75,120,120,138.75,183.75,95.83333333333333
1099,-401.25,112.5,300,247.5,108.75,108.75,127.5,168.75,85.83333333333333
1100,-412.5,97.5,322.5,266.25,127.5,131.25,150,191.25,97.08333333333333
1101,-405,78.75,337.5,281.25,146.25,150,168.75,206.25,107.08333333333333
1102,-416.25,60,322.5,266.25,135,135,157.5,191.25,94.58333333333333
1103,-465,26.25,318.75,258.75,127.5,131.25,150,183.75,81.25
1104,-525,30,318.75,255,127.5,131.25,150,180,74.16666666666667
1105,-540,63.75,315,255,131.25,131.25,146.25,172.5,75.0
1106,-502.5,93.75,318.75,255,131.25,127.5,138.75,172.5,81.66666666666667
1107,-483.75,112.5,315,247.5,123.75,112.5,123.75,165,79.58333333333333
1108,-476.25,105,303.75,232.5,112.5,101.25,116.25,157.5,72.5
1109,-420,90,296.25,228.75,108.75,97.5,112.5,157.5,74.58333333333333
1110,-412.5,60,288.75,217.5,101.25,90,105,150,66.66666666666667
1111,-453.75,41.25,285,210,97.5,86.25,105,146.25,57.5
1112,-480,41.25,292.5,213.75,101.25,97.5,116.25,157.5,60.0
1113,-483.75,67.5,292.5,206.25,101.25,97.5,116.25,157.5,61.666666666666664
1114,-498.75,97.5,273.75,191.25,90,86.25,105,135,53.333333333333336
1115,-521.25,105,277.5,191.25,90,86.25,105,131.25,51.666666666666664
1116,-558.75,93.75,292.5,206.25,105,101.25,116.25,142.5,55.416666666666664
1117,-581.25,60,303.75,217.5,120,112.5,127.5,157.5,57.5
1118,-585,30,311.25,225,127.5,123.75,142.5,172.5,60.833333333333336
1119,-577.5,11.25,311.25,228.75,135,127.5,146.25,176.25,62.083333333333336
1120,-532.5,-7.5,311.25,225,135,127.5,142.5,176.25,64.16666666666667
1121,-480,-41.25,307.5,225,131.25,123.75,142.5,183.75,65.83333333333333
1122,-461.25,-82.5,311.25,225,127.5,123.75,142.5,180,62.916666666666664
1123,-480,-82.5,315,221.25,123.75,116.25,138.75,172.5,58.333333333333336
1124,-502.5,-15,292.5,195,101.25,90,108.75,146.25,46.25
1125,-517.5,60,258.75,157.5,63.75,56.25,75,112.5,29.583333333333332
1126,-528.75,78.75,251.25,146.25,56.25,48.75,67.5,108.75,25.416666666666668
1127,-551.25,45,258.75,153.75,67.5,63.75,78.75,112.5,25.416666666666668
1128,-585,11.25,273.75,168.75,82.5,78.75,90,120,26.666666666666668
1129,-592.5,22.5,273.75,168.75,82.5,82.5,90,120,27.5
1130,-570,71.25,266.25,165,78.75,78.75,90,123.75,33.75
1131,-573.75,108.75,251.25,153.75,67.5,67.5,78.75,112.5,29.583333333333332
1132,-551.25,131.25,232.5,135,52.5,52.5,67.5,108.75,25.416666666666668
1133,-476.25,123.75,225,135,56.25,56.25,75,123.75,35.416666666666664
1134,-453.75,56.25,251.25,165,82.5,86.25,108.75,153.75,50.0
1135,-480,-22.5,273.75,187.5,105,105,127.5,168.75,51.666666666666664
1136,-487.5,-63.75,288.75,198.75,116.25,116.25,135,176.25,53.333333333333336
1137,-487.5,-82.5,292.5,198.75,120,120,135,172.5,52.083333333333336
1138,-502.5,-108.75,292.5,202.5,123.75,120,138.75,172.5,48.75
1139,-543.75,-105,296.25,206.25,123.75,120,131.25,165,43.75
1140,-585,-41.25,288.75,195,116.25,116.25,123.75,153.75,40.833333333333336
1141,-581.25,33.75,277.5,187.5,112.5,112.5,120,150,45.833333333333336
1142,-558.75,63.75,270,183.75,112.5,112.5,120,150,50.416666666666664
1143,-532.5,52.5,266.25,180,112.5,112.5,120,146.25,50.833333333333336
1144,-480,48.75,273.75,191.25,120,123.75,127.5,161.25,62.916666666666664
1145,-453.75,63.75,262.5,180,105,108.75,116.25,153.75,59.583333333333336
1146,-495,56.25,258.75,176.25,101.25,101.25,112.5,150,51.25
1147,-521.25,48.75,262.5,176.25,101.25,101.25,112.5,146.25,47.5
1148,-513.75,60,251.25,165,90,90,101.25,135,42.083333333333336
1149,-510,60,240,153.75,82.5,82.5,93.75,127.5,36.666666666666664
1150,-517.5,52.5,240,157.5,82.5,82.5,93.75,127.5,35.416666666666664
1151,-540,56.25,251.25,172.5,97.5,97.5,112.5,142.5,43.333333333333336
1152,-551.25,78.75,258.75,180,105,108.75,116.25,142.5,48.75
1153,-566.25,93.75,255,172.5,105,105,108.75,138.75,45.833333333333336
1154,-577.5,71.25,255,180,108.75,108.75,116.25,150,45.833333333333336
1155,-570,18.75,266.25,191.25,123.75,123.75,131.25,168.75,50.416666666666664
1156,-525,0,273.75,198.75,131.25,127.5,135,172.5,57.083333333333336
1157,-468.75,-3.75,277.5,202.5,131.25,131.25,135,168.75,63.75
1158,-457.5,-15,270,195,123.75,123.75,127.5,157.5,58.333333333333336
1159,-453.75,7.5,277.5,195,127.5,127.5,135,161.25,64.16666666666667
1160,-435,15,288.75,206.25,138.75,142.5,150,176.25,75.83333333333333
1161,-450,-7.5,281.25,202.5,131.25,138.75,146.25,168.75,67.91666666666667
1162,-498.75,-11.25,277.5,195,127.5,135,142.5,165,59.166666666666664
1163,-532.5,3.75,273.75,195,127.5,135,142.5,161.25,56.25
1164,-551.25,30,273.75,198.75,127.5,135,142.5,161.25,57.5
1165,-555,52.5,270,195,127.5,127.5,131.25,153.75,55.833333333333336
1166,-540,52.5,270,202.5,135,135,138.75,168.75,62.5
1167,-510,41.25,273.75,206.25,135,142.5,146.25,176.25,67.91666666666667
1168,-472.5,63.75,255,187.5,116.25,120,127.5,161.25,62.083333333333336
1169,-427.5,93.75,225,165,90,93.75,97.5,135,52.5
1170,-446.25,33.75,236.25,168.75,97.5,101.25,108.75,142.5,49.166666666666664
1171,-502.5,-26.25,262.5,191.25,120,123.75,131.25,165,51.666666666666664
1172,-495,0,262.5,187.5,116.25,127.5,138.75,172.5,56.666666666666664
1173,-483.75,30,251.25,176.25,105,116.25,131.25,161.25,54.166666666666664
1174,-506.25,30,247.5,172.5,97.5,108.75,120,146.25,46.25
1175,-543.75,11.25,255,176.25,105,112.5,123.75,142.5,42.5
1176,-573.75,11.25,262.5,187.5,116.25,123.75,131.25,146.25,45.0
1177,-573.75,48.75,251.25,176.25,108.75,116.25,120,142.5,43.333333333333336
1178,-543.75,101.25,247.5,168.75,105,112.5,120,142.5,50.416666666666664
1179,-525,112.5,240,168.75,105,112.5,120,146.25,53.333333333333336
1180,-491.25,63.75,251.25,183.75,116.25,131.25,142.5,172.5,63.333333333333336
1181,-438.75,-3.75,262.5,191.25,127.5,138.75,150,187.5,68.33333333333333
1182,-431.25,-18.75,255,180,116.25,123.75,135,168.75,58.75
1183,-461.25,37.5,240,161.25,93.75,101.25,116.25,146.25,48.333333333333336
1184,-476.25,56.25,240,157.5,93.75,101.25,112.5,142.5,47.5
1185,-472.5,15,236.25,153.75,86.25,90,101.25,135,38.333333333333336
1186,-480,-3.75,243.75,157.5,90,97.5,108.75,138.75,39.166666666666664
1187,-510,-7.5,251.25,165,101.25,108.75,123.75,150,42.5
1188,-543.75,7.5,251.25,168.75,108.75,123.75,135,157.5,45.416666666666664
1189,-562.5,26.25,251.25,168.75,112.5,127.5,135,161.25,46.666666666666664
1190,-525,33.75,240,165,105,120,131.25,153.75,47.083333333333336
1191,-502.5,33.75,232.5,161.25,101.25,116.25,127.5,153.75,47.083333333333336
1192,-480,30,225,150,93.75,108.75,120,150,44.166666666666664
1193,-431.25,33.75,213.75,138.75,78.75,90,101.25,138.75,40.416666666666664
1194,-435,22.5,213.75,135,71.25,78.75,93.75,135,35.0
1195,-487.5,-11.25,217.5,131.25,67.5,78.75,97.5,135,25.416666666666668
1196,-491.25,0,217.5,127.5,63.75,75,93.75,127.5,23.75
1197,-472.5,7.5,225,131.25,67.5,78.75,97.5,131.25,29.583333333333332
1198,-465,-3.75,228.75,135,71.25,82.5,101.25,138.75,32.083333333333336
1199,-491.25,15,247.5,153.75,90,101.25,120,153.75,43.333333333333336
1200,-536.25,33.75,247.5,153.75,90,105,120,150,40.416666666666664
1201,-558.75,52.5,236.25,138.75,78.75,93.75,105,138.75,31.666666666666668
1202,-558.75,52.5,225,131.25,75,90,101.25,135,27.916666666666668
1203,-566.25,15,228.75,135,78.75,93.75,101.25,135,24.583333333333332
1204,-562.5,-33.75,228.75,135,75,90,101.25,135,18.75
1205,-483.75,3.75,225,127.5,71.25,86.25,101.25,138.75,30.0
1206,-438.75,71.25,206.25,108.75,52.5,67.5,82.5,123.75,30.416666666666668
1207,-461.25,52.5,202.5,101.25,45,63.75,82.5,120,22.916666666666668
1208,-450,11.25,213.75,112.5,60,82.5,97.5,138.75,29.583333333333332
1209,-446.25,-3.75,236.25,135,78.75,101.25,120,157.5,42.083333333333336
1210,-457.5,7.5,243.75,135,78.75,101.25,116.25,153.75,42.083333333333336
1211,-498.75,18.75,225,112.5,56.25,71.25,86.25,120,21.25
1212,-532.5,15,213.75,101.25,41.25,60,75,105,8.75
1213,-551.25,26.25,213.75,101.25,45,60,75,105,8.333333333333334
1214,-566.25,78.75,198.75,90,33.75,48.75,63.75,97.5,5.0
1215,-547.5,120,180,78.75,26.25,37.5,52.5,90,4.166666666666667
1216,-480,86.25,206.25,105,52.5,67.5,82.5,123.75,27.083333333333332
1217,-423.75,-3.75,243.75,142.5,86.25,97.5,116.25,161.25,46.666666666666664
1218,-427.5,-93.75,255,150,93.75,105,123.75,165,41.25
1219,-468.75,-127.5,251.25,142.5,82.5,97.5,116.25,150,27.083333333333332
1220,-468.75,-135,243.75,131.25,71.25,90,105,142.5,20.0
1221,-442.5,-97.5,247.5,135,75,90,105,142.5,28.333333333333332
1222,-457.5,-7.5,217.5,105,45,60,78.75,112.5,17.083333333333332
1223,-502.5,37.5,198.75,86.25,26.25,45,63.75,97.5,5.833333333333333
1224,-536.25,3.75,206.25,93.75,37.5,60,75,108.75,5.416666666666667
1225,-547.5,-18.75,225,112.5,56.25,78.75,93.75,127.5,14.166666666666666
1226,-547.5,-33.75,228.75,120,63.75,86.25,97.5,135,16.666666666666668
1227,-555,-60,225,116.25,60,82.5,93.75,127.5,10.0
1228,-498.75,-45,217.5,108.75,48.75,71.25,82.5,123.75,12.083333333333334
1229,-416.25,-15,210,101.25,45,63.75,78.75,123.75,21.25
1230,-390,-11.25,198.75,90,30,48.75,67.5,112.5,16.25
1231,-408.75,0,187.5,75,18.75,37.5,56.25,101.25,7.5
1232,-435,0,187.5,75,18.75,37.5,52.5,97.5,3.75
1233,-468.75,-22.5,198.75,86.25,30,45,60,101.25,3.3333333333333335
1234,-506.25,-30,213.75,93.75,37.5,56.25,71.25,112.5,5.416666666666667
1235,-540,-45,225,108.75,52.5,75,90,127.5,10.416666666666666
1236,-551.25,-60,228.75,116.25,63.75,90,101.25,138.75,14.166666666666666
1237,-547.5,-30,217.5,105,52.5,78.75,90,123.75,10.0
1238,-540,-11.25,198.75,90,33.75,63.75,71.25,105,1.25
1239,-536.25,-45,206.25,93.75,41.25,71.25,82.5,112.5,2.9166666666666665
1240,-528.75,-30,213.75,101.25,48.75,78.75,90,123.75,10.833333333333334
1241,-472.5,15,191.25,78.75,26.25,56.25,71.25,105,7.916666666666667
1242,-450,-22.5,187.5,71.25,18.75,48.75,67.5,101.25,2.5
1243,-465,-71.25,202.5,82.5,26.25,56.25,75,108.75,1.6666666666666667
1244,-476.25,-93.75,213.75,93.75,37.5,67.5,86.25,120,5.416666666666667
1245,-480,-86.25,213.75,93.75,33.75,63.75,86.25,120,5.0
1246,-468.75,-45,213.75,90,30,56.25,75,116.25,7.5
1247,-502.5,-30,210,86.25,26.25,48.75,67.5,105,1.25
1248,-570,-63.75,206.25,78.75,22.5,41.25,56.25,93.75,-15.0
1249,-585,-90,217.5,93.75,33.75,56.25,67.5,105,-11.25
1250,-562.5,-78.75,217.5,97.5,37.5,60,67.5,108.75,-5.833333333333333
1251,-543.75,-52.5,202.5,86.25,30,52.5,56.25,97.5,-7.916666666666667
1252,-483.75,-15,198.75,78.75,26.25,48.75,52.5,97.5,0.4166666666666667
1253,-397.5,18.75,195,75,22.5,41.25,52.5,101.25,12.083333333333334
1254,-408.75,11.25,187.5,67.5,11.25,33.75,45,93.75,4.583333333333333
1255,-453.75,-3.75,183.75,63.75,7.5,33.75,45,90,-3.75
1256,-446.25,-7.5,191.25,71.25,15,41.25,52.5,97.5,1.6666666666666667
1257,-427.5,-11.25,195,75,18.75,45,60,105,6.666666666666667
1258,-427.5,-3.75,191.25,71.25,18.75,45,56.25,97.5,5.416666666666667
1259,-461.25,3.75,191.25,75,18.75,48.75,56.25,93.75,2.9166666666666665
1260,-498.75,0,198.75,78.75,26.25,52.5,63.75,97.5,2.0833333333333335
1261,-540,-7.5,202.5,82.5,30,56.25,63.75,93.75,-2.0833333333333335
1262,-543.75,-22.5,198.75,82.5,26.25,52.5,56.25,93.75,-6.25
1263,-528.75,-30,195,82.5,26.25,52.5,60,97.5,-5.0
1264,-491.25,-26.25,202.5,90,33.75,60,67.5,108.75,5.0
1265,-427.5,-26.25,198.75,86.25,30,56.25,67.5,112.5,10.833333333333334
1266,-397.5,-67.5,191.25,75,18.75,45,56.25,105,2.9166666666666665
1267,-412.5,-105,210,86.25,30,56.25,63.75,108.75,4.166666666666667
1268,-435,-52.5,217.5,93.75,33.75,56.25,67.5,108.75,10.0
1269,-461.25,11.25,206.25,78.75,22.5,45,56.25,101.25,6.666666666666667
1270,-495,-15,198.75,75,15,41.25,56.25,97.5,-2.9166666666666665
1271,-510,-41.25,217.5,97.5,37.5,63.75,78.75,116.25,6.666666666666667
1272,-521.25,-15,236.25,116.25,56.25,82.5,93.75,127.5,19.583333333333332
1273,-532.5,3.75,251.25,123.75,63.75,90,97.5,131.25,25.416666666666668
1274,-525,0,251.25,123.75,67.5,93.75,101.25,135,27.5
1275,-513.75,0,251.25,127.5,71.25,93.75,101.25,138.75,30.0
1276,-480,26.25,247.5,120,60,86.25,93.75,135,32.083333333333336
1277,-427.5,33.75,240,108.75,48.75,67.5,78.75,123.75,30.416666666666668
1278,-416.25,11.25,243.75,108.75,41.25,60,71.25,116.25,26.25
1279,-431.25,11.25,232.5,97.5,30,48.75,60,105,17.083333333333332
1280,-446.25,33.75,225,90,22.5,41.25,52.5,93.75,12.5
1281,-442.5,52.5,213.75,82.5,18.75,37.5,45,82.5,10.0
1282,-457.5,63.75,213.75,86.25,26.25,45,56.25,93.75,14.166666666666666
1283,-513.75,52.5,232.5,105,45,67.5,75,108.75,19.166666666666668
1284,-543.75,33.75,247.5,120,56.25,78.75,82.5,112.5,20.833333333333332
1285,-532.5,52.5,258.75,135,71.25,90,90,120,31.666666666666668
1286,-521.25,75,258.75,138.75,75,90,93.75,127.5,37.5
1287,-502.5,71.25,262.5,146.25,78.75,97.5,105,138.75,44.166666666666664
1288,-453.75,67.5,281.25,161.25,93.75,116.25,123.75,157.5,60.833333333333336
1289,-386.25,101.25,273.75,157.5,93.75,112.5,123.75,157.5,70.41666666666667
1290,-371.25,120,251.25,138.75,78.75,101.25,112.5,146.25,64.16666666666667
1291,-393.75,101.25,243.75,146.25,90,112.5,123.75,157.5,64.58333333333333
1292,-390,71.25,236.25,150,93.75,116.25,131.25,165,63.75
1293,-386.25,26.25,217.5,138.75,86.25,105,123.75,161.25,52.5
1294,-405,-15,213.75,135,82.5,105,123.75,161.25,44.583333333333336
1295,-431.25,-11.25,206.25,135,82.5,105,120,157.5,40.416666666666664
1296,-457.5,30,183.75,120,67.5,90,105,146.25,31.666666666666668
1297,-461.25,60,176.25,108.75,63.75,86.25,101.25,146.25,31.25
1298,-442.5,60,180,108.75,71.25,93.75,108.75,153.75,37.083333333333336
1299,-450,30,157.5,93.75,56.25,82.5,97.5,146.25,23.75
1300,-461.25,-3.75,146.25,82.5,45,75,97.5,146.25,14.166666666666666
1301,-427.5,-7.5,135,67.5,30,60,78.75,131.25,7.5
1302,-397.5,0,123.75,48.75,11.25,41.25,60,112.5,0.0
1303,-393.75,-11.25,138.75,60,22.5,52.5,75,120,7.083333333333333
1304,-386.25,-22.5,176.25,90,52.5,86.25,105,146.25,27.5
1305,-375,-41.25,198.75,108.75,67.5,93.75,112.5,153.75,35.416666666666664
1306,-390,-41.25,191.25,101.25,56.25,78.75,93.75,131.25,24.583333333333332
1307,-435,-18.75,187.5,97.5,48.75,67.5,82.5,120,16.666666666666668
1308,-457.5,-7.5,195,101.25,56.25,71.25,82.5,120,17.916666666666668
1309,-457.5,15,191.25,101.25,52.5,71.25,82.5,120,19.583333333333332
1310,-457.5,37.5,180,90,45,63.75,75,116.25,16.666666666666668
1311,-468.75,37.5,168.75,75,30,48.75,60,108.75,6.666666666666667
1312,-461.25,15,161.25,67.5,22.5,41.25,52.5,105,0.4166666666666667
1313,-431.25,-22.5,165,67.5,18.75,33.75,52.5,108.75,-0.8333333333333334
1314,-435,-56.25,157.5,56.25,7.5,22.5,37.5,93.75,-12.916666666666666
1315,-446.25,-90,153.75,56.25,3.75,18.75,33.75,82.5,-20.833333333333332
1316,-427.5,-108.75,165,60,11.25,26.25,41.25,90,-15.833333333333334
1317,-416.25,-116.25,176.25,67.5,18.75,37.5,52.5,97.5,-9.166666666666666
1318,-438.75,-116.25,172.5,63.75,15,33.75,45,90,-15.0
1319,-465,-67.5,168.75,60,11.25,30,41.25,86.25,-15.0
1320,-476.25,-37.5,168.75,60,11.25,33.75,45,90,-11.666666666666666
1321,-491.25,-56.25,180,75,26.25,48.75,60,101.25,-6.25
1322,-491.25,-56.25,191.25,86.25,41.25,60,75,116.25,2.5
1323,-472.5,-56.25,183.75,82.5,37.5,63.75,78.75,116.25,3.75
1324,-450,-71.25,176.25,75,30,56.25,71.25,112.5,0.0
1325,-401.25,-56.25,161.25,52.5,11.25,33.75,52.5,93.75,-5.833333333333333
1326,-371.25,-37.5,138.75,33.75,-7.5,18.75,37.5,78.75,-12.083333333333334
1327,-408.75,-45,146.25,33.75,-7.5,18.75,37.5,78.75,-16.25
1328,-442.5,-52.5,153.75,37.5,-3.75,18.75,37.5,75,-19.583333333333332
1329,-442.5,-56.25,153.75,41.25,-3.75,18.75,37.5,78.75,-19.166666666666668
1330,-453.75,-67.5,157.5,45,0,22.5,41.25,86.25,-18.75
1331,-472.5,-63.75,157.5,45,0,22.5,37.5,82.5,-21.25
1332,-502.5,-56.25,161.25,48.75,3.75,30,45,86.25,-20.416666666666668
1333,-525,-63.75,161.25,56.25,15,37.5,48.75,86.25,-20.416666666666668
1334,-525,-67.5,157.5,56.25,15,37.5,45,82.5,-22.083333333333332
1335,-513.75,-52.5,153.75,52.5,15,41.25,45,82.5,-19.583333333333332
1336,-468.75,-15,157.5,60,26.25,48.75,56.25,90,-5.0
1337,-408.75,-18.75,150,56.25,18.75,41.25,48.75,90,-2.5
1338,-408.75,-67.5,146.25,45,7.5,26.25,33.75,78.75,-15.416666666666666
1339,-427.5,-97.5,157.5,56.25,7.5,26.25,37.5,75,-18.333333333333332
1340,-423.75,-112.5,165,63.75,3.75,15,26.25,67.5,-21.666666666666668
1341,-427.5,-138.75,187.5,86.25,7.5,3.75,11.25,52.5,-24.166666666666668
1342,-435,-150,243.75,142.5,26.25,3.75,0,37.5,-14.583333333333334
1343,-435,-138.75,307.5,210,41.25,-15,-33.75,0,-7.083333333333333
1344,-453.75,-135,371.25,270,45,-45,-78.75,-48.75,-8.333333333333334
1345,-461.25,-97.5,435,333.75,63.75,-56.25,-101.25,-67.5,5.416666666666667
1346,-438.75,-48.75,495,408.75,101.25,-41.25,-93.75,-63.75,35.416666666666664
1347,-405,-26.25,551.25,502.5,172.5,3.75,-56.25,-30,79.16666666666667
1348,-348.75,7.5,611.25,603.75,258.75,75,7.5,30,138.33333333333334
1349,-251.25,48.75,648.75,697.5,348.75,157.5,82.5,101.25,203.75
1350,-202.5,82.5,660,765,423.75,228.75,150,157.5,251.66666666666666
1351,-191.25,150,671.25,810,491.25,307.5,225,221.25,298.3333333333333
1352,-157.5,221.25,693.75,881.25,585,416.25,333.75,318.75,365.8333333333333
1353,-101.25,307.5,701.25,975,705,551.25,468.75,435,449.1666666666667
1354,-48.75,431.25,667.5,1020,810,678.75,596.25,540,521.6666666666666
1355,-33.75,588.75,596.25,982.5,870,787.5,708.75,641.25,571.25
1356,-18.75,761.25,487.5,896.25,933.75,918.75,851.25,776.25,622.9166666666666
1357,3.75,903.75,416.25,870,1050,1095,1038.75,948.75,702.9166666666666
1358,15,1042.5,390,888.75,1185,1286.25,1237.5,1132.5,797.5
1359,41.25,1248.75,273.75,791.25,1245,1443.75,1428.75,1320,865.8333333333334
1360,108.75,1455,60,581.25,1252.5,1590,1623.75,1522.5,910.4166666666666
1361,202.5,1563.75,-157.5,360,1256.25,1725,1792.5,1680,935.8333333333334
1362,213.75,1597.5,-348.75,116.25,1260,1852.5,1938.75,1796.25,936.25
1363,157.5,1586.25,-465,-67.5,1293.75,1991.25,2077.5,1897.5,941.25
1364,86.25,1507.5,-450,-86.25,1387.5,2115,2171.25,1931.25,962.5
1365,0,1417.5,-446.25,-108.75,1440,2175,2193.75,1897.5,952.0833333333334
1366,-90,1342.5,-543.75,-262.5,1380,2137.5,2137.5,1815,879.5833333333334
1367,-161.25,1222.5,-622.5,-420,1245,1991.25,1987.5,1672.5,768.3333333333334
1368,-255,1016.25,-592.5,-495,1057.5,1728.75,1721.25,1447.5,625.4166666666666
1369,-375,791.25,-536.25,-566.25,783.75,1353.75,1372.5,1170,443.75
1370,-465,603.75,-506.25,-678.75,438.75,926.25,990,888.75,244.16666666666666
1371,-551.25,450,-495,-798.75,97.5,517.5,630,622.5,52.5
1372,-566.25,367.5,-521.25,-900,-168.75,202.5,341.25,397.5,-94.16666666666667
1373,-528.75,285,-513.75,-888.75,-258.75,52.5,168.75,240,-160.41666666666666
1374,-555,131.25,-450,-791.25,-232.5,15,90,142.5,-183.33333333333334
1375,-600,18.75,-401.25,-693.75,-187.5,22.5,67.5,105,-185.41666666666666
1376,-573.75,22.5,-378.75,-592.5,-116.25,75,105,127.5,-147.91666666666666
1377,-517.5,48.75,-356.25,-506.25,-67.5,116.25,138.75,150,-110.41666666666667
1378,-480,56.25,-315,-438.75,-71.25,108.75,142.5,157.5,-93.33333333333333
1379,-453.75,71.25,-262.5,-371.25,-63.75,112.5,153.75,176.25,-70.83333333333333
1380,-461.25,60,-213.75,-292.5,-37.5,120,157.5,180,-54.166666666666664
1381,-480,33.75,-157.5,-206.25,3.75,138.75,161.25,176.25,-36.666666666666664
1382,-465,67.5,-97.5,-120,52.5,157.5,172.5,183.75,-5.416666666666667
1383,-431.25,135,-67.5,-67.5,78.75,165,172.5,183.75,18.75
1384,-386.25,150,-41.25,-26.25,97.5,172.5,172.5,180,35.416666666666664
1385,-337.5,101.25,7.5,30,127.5,187.5,180,191.25,54.166666666666664
1386,-337.5,26.25,56.25,71.25,150,191.25,183.75,191.25,59.166666666666664
1387,-375,-15,86.25,93.75,153.75,195,183.75,187.5,56.666666666666664
1388,-382.5,3.75,112.5,108.75,153.75,191.25,183.75,187.5,62.083333333333336
1389,-360,45,135,131.25,161.25,191.25,183.75,183.75,74.58333333333333
1390,-367.5,52.5,146.25,138.75,153.75,176.25,168.75,168.75,70.83333333333333
1391,-405,33.75,153.75,142.5,150,165,153.75,157.5,61.25
1392,-450,7.5,165,153.75,157.5,172.5,157.5,161.25,58.333333333333336
1393,-453.75,7.5,176.25,165,165,176.25,157.5,161.25,61.666666666666664
1394,-420,33.75,168.75,161.25,157.5,168.75,142.5,153.75,62.916666666666664
1395,-401.25,56.25,157.5,153.75,150,157.5,135,150,62.083333333333336
1396,-363.75,56.25,161.25,157.5,146.25,161.25,138.75,153.75,67.91666666666667
1397,-311.25,45,157.5,153.75,135,146.25,127.5,146.25,66.66666666666667
1398,-315,11.25,157.5,150,123.75,135,116.25,135,57.083333333333336
1399,-348.75,-22.5,165,157.5,127.5,135,112.5,131.25,50.833333333333336
1400,-367.5,-26.25,180,168.75,138.75,146.25,127.5,146.25,57.083333333333336
1401,-367.5,-33.75,183.75,172.5,138.75,146.25,127.5,146.25,57.083333333333336
1402,-363.75,-37.5,176.25,165,127.5,135,116.25,135,50.416666666666664
1403,-405,-37.5,180,165,131.25,135,116.25,131.25,46.25
1404,-438.75,-37.5,187.5,176.25,138.75,146.25,123.75,135,47.916666666666664
1405,-442.5,-22.5,191.25,183.75,146.25,153.75,131.25,138.75,53.333333333333336
1406,-412.5,11.25,191.25,187.5,153.75,161.25,138.75,142.5,63.75
1407,-390,11.25,187.5,191.25,157.5,165,138.75,146.25,67.5
1408,-382.5,-11.25,183.75,187.5,150,157.5,131.25,138.75,61.666666666666664
1409,-322.5,0,176.25,180,138.75,146.25,120,131.25,63.333333333333336
1410,-296.25,3.75,176.25,180,138.75,142.5,116.25,135,66.25
1411,-296.25,15,172.5,180,135,131.25,108.75,131.25,64.16666666666667
1412,-273.75,41.25,161.25,176.25,131.25,127.5,105,123.75,65.83333333333333
1413,-292.5,15,165,176.25,131.25,127.5,105,127.5,61.666666666666664
1414,-326.25,-22.5,180,187.5,138.75,142.5,120,142.5,62.5
1415,-348.75,-41.25,195,202.5,157.5,157.5,135,150,67.5
1416,-367.5,-15,202.5,213.75,165,168.75,138.75,150,72.91666666666667
1417,-382.5,45,187.5,210,161.25,161.25,131.25,135,72.08333333333333
1418,-371.25,78.75,187.5,210,165,168.75,138.75,142.5,80.0
1419,-363.75,56.25,187.5,213.75,168.75,172.5,138.75,146.25,80.0
1420,-315,63.75,180,210,161.25,165,135,142.5,82.5
1421,-266.25,67.5,161.25,198.75,153.75,157.5,131.25,146.25,83.33333333333333
1422,-262.5,33.75,161.25,198.75,153.75,157.5,131.25,146.25,80.0
1423,-270,-3.75,172.5,210,165,168.75,142.5,146.25,81.25
1424,-273.75,-7.5,187.5,225,180,187.5,161.25,157.5,90.83333333333333
1425,-285,0,176.25,213.75,172.5,183.75,153.75,150,85.0
1426,-292.5,-3.75,168.75,206.25,165,180,150,146.25,80.0
1427,-311.25,11.25,176.25,221.25,180,191.25,161.25,153.75,87.08333333333333
1428,-363.75,26.25,176.25,225,183.75,191.25,161.25,153.75,83.75
1429,-375,45,176.25,228.75,183.75,191.25,157.5,157.5,85.0
1430,-333.75,60,183.75,240,195,198.75,165,168.75,97.5
1431,-318.75,30,187.5,243.75,198.75,198.75,165,172.5,97.5
1432,-303.75,-3.75,187.5,247.5,202.5,198.75,165,176.25,96.66666666666667
1433,-247.5,11.25,172.5,240,187.5,183.75,153.75,165,96.25
1434,-217.5,56.25,153.75,221.25,172.5,168.75,138.75,150,93.75
1435,-225,105,146.25,217.5,172.5,176.25,146.25,150,98.75
1436,-243.75,112.5,153.75,225,183.75,191.25,157.5,161.25,104.58333333333333
1437,-232.5,97.5,161.25,232.5,187.5,198.75,168.75,165,108.75
1438,-221.25,63.75,172.5,243.75,202.5,217.5,187.5,183.75,116.66666666666667
1439,-266.25,7.5,180,258.75,217.5,228.75,198.75,191.25,112.91666666666667
1440,-318.75,11.25,172.5,258.75,221.25,225,191.25,187.5,105.41666666666667
1441,-326.25,71.25,153.75,243.75,202.5,210,172.5,168.75,99.58333333333333
1442,-303.75,108.75,142.5,240,195,198.75,161.25,161.25,100.41666666666667
1443,-285,116.25,157.5,255,210,210,168.75,176.25,112.08333333333333
1444,-255,112.5,161.25,262.5,217.5,213.75,176.25,183.75,119.16666666666667
1445,-210,82.5,161.25,266.25,221.25,217.5,183.75,195,124.16666666666667
1446,-206.25,33.75,172.5,277.5,236.25,232.5,202.5,210,128.75
1447,-240,-18.75,180,288.75,243.75,247.5,213.75,217.5,125.83333333333333
1448,-258.75,-48.75,187.5,296.25,251.25,251.25,217.5,217.5,123.75
1449,-236.25,-22.5,195,303.75,258.75,258.75,225,221.25,133.75
1450,-225,45,191.25,303.75,258.75,258.75,221.25,221.25,141.66666666666666
1451,-255,71.25,180,296.25,247.5,247.5,213.75,213.75,135.0
1452,-288.75,56.25,180,300,255,255,217.5,217.5,132.5
1453,-300,67.5,176.25,300,255,255,217.5,213.75,131.66666666666666
1454,-303.75,101.25,165,292.5,247.5,251.25,210,206.25,130.0
1455,-281.25,105,157.5,288.75,243.75,247.5,210,210,131.25
1456,-206.25,108.75,165,300,255,262.5,228.75,232.5,149.58333333333334
1457,-142.5,123.75,157.5,296.25,251.25,258.75,225,236.25,156.25
1458,-142.5,120,153.75,292.5,243.75,251.25,221.25,228.75,152.08333333333334
1459,-165,90,153.75,292.5,243.75,251.25,221.25,221.25,145.41666666666666
1460,-176.25,67.5,153.75,296.25,243.75,251.25,221.25,217.5,141.66666666666666
1461,-165,71.25,157.5,296.25,240,243.75,213.75,210,140.83333333333334
1462,-157.5,90,153.75,292.5,236.25,232.5,202.5,198.75,138.75
1463,-180,82.5,153.75,296.25,236.25,228.75,198.75,202.5,135.41666666666666
1464,-213.75,60,165,307.5,247.5,243.75,213.75,217.5,137.91666666666666
1465,-225,78.75,172.5,315,258.75,262.5,232.5,236.25,147.91666666666666
1466,-198.75,108.75,165,311.25,255,262.5,236.25,236.25,152.91666666666666
1467,-180,138.75,165,315,251.25,262.5,232.5,236.25,157.91666666666666
1468,-180,153.75,168.75,315,251.25,258.75,236.25,240,160.41666666666666
1469,-142.5,105,157.5,300,232.5,240,225,228.75,149.58333333333334
1470,-101.25,71.25,146.25,285,210,221.25,206.25,217.5,139.58333333333334
1471,-116.25,75,142.5,277.5,202.5,217.5,202.5,210,134.58333333333334
1472,-135,75,153.75,288.75,213.75,228.75,210,217.5,139.16666666666666
1473,-120,90,161.25,292.5,217.5,228.75,213.75,225,145.41666666666666
1474,-146.25,71.25,157.5,285,202.5,217.5,206.25,217.5,134.58333333333334
1475,-183.75,56.25,161.25,281.25,202.5,221.25,210,221.25,130.0
1476,-210,86.25,168.75,288.75,210,232.5,217.5,228.75,135.83333333333334
1477,-206.25,116.25,165,285,210,232.5,217.5,225,138.33333333333334
1478,-172.5,123.75,157.5,277.5,202.5,221.25,210,221.25,137.91666666666666
1479,-168.75,127.5,150,270,191.25,213.75,202.5,217.5,133.75
1480,-168.75,127.5,153.75,270,183.75,210,202.5,217.5,132.91666666666666
1481,-120,116.25,153.75,266.25,176.25,195,191.25,213.75,132.5
1482,-97.5,75,146.25,247.5,157.5,176.25,172.5,198.75,119.58333333333333
1483,-108.75,45,142.5,240,146.25,165,161.25,191.25,109.16666666666667
1484,-105,56.25,161.25,255,161.25,176.25,176.25,206.25,120.83333333333333
1485,-97.5,48.75,176.25,270,168.75,187.5,183.75,213.75,127.91666666666667
1486,-105,41.25,172.5,258.75,157.5,180,176.25,206.25,120.83333333333333
1487,-135,52.5,161.25,243.75,142.5,165,161.25,191.25,109.16666666666667
1488,-176.25,75,161.25,240,138.75,165,157.5,187.5,105.41666666666667
1489,-213.75,97.5,168.75,243.75,142.5,165,157.5,191.25,105.83333333333333
1490,-232.5,101.25,176.25,243.75,138.75,161.25,157.5,195,104.58333333333333
1491,-213.75,123.75,168.75,240,131.25,153.75,146.25,187.5,104.16666666666667
1492,-180,146.25,153.75,221.25,112.5,135,131.25,168.75,98.75
1493,-150,138.75,150,210,101.25,123.75,116.25,157.5,94.16666666666667
1494,-127.5,93.75,150,206.25,93.75,112.5,108.75,150,87.5
1495,-138.75,60,157.5,210,93.75,112.5,112.5,142.5,83.33333333333333
1496,-161.25,93.75,168.75,217.5,105,123.75,123.75,153.75,91.66666666666667
1497,-176.25,101.25,165,210,93.75,116.25,116.25,146.25,85.83333333333333
1498,-191.25,37.5,168.75,210,93.75,112.5,112.5,142.5,76.25
1499,-217.5,0,195,232.5,112.5,127.5,127.5,157.5,81.66666666666667
1500,-255,22.5,198.75,232.5,116.25,131.25,127.5,157.5,81.25
1501,-273.75,56.25,198.75,232.5,120,131.25,123.75,150,82.08333333333333
1502,-240,63.75,206.25,236.25,127.5,138.75,123.75,150,89.58333333333333
1503,-206.25,33.75,210,243.75,135,142.5,127.5,150,92.91666666666667
1504,-217.5,7.5,206.25,236.25,127.5,135,116.25,142.5,83.75
1505,-217.5,11.25,191.25,213.75,105,108.75,93.75,120,69.58333333333333
1506,-191.25,48.75,176.25,198.75,90,90,75,105,65.83333333333333
1507,-176.25,97.5,183.75,202.5,97.5,101.25,90,120,79.58333333333333
1508,-183.75,127.5,183.75,202.5,101.25,105,90,120,82.91666666666667
1509,-198.75,112.5,183.75,198.75,93.75,97.5,82.5,105,75.0
1510,-202.5,63.75,195,206.25,101.25,108.75,97.5,116.25,76.25
1511,-221.25,33.75,210,217.5,116.25,127.5,112.5,131.25,80.83333333333333
1512,-270,-18.75,221.25,232.5,135,142.5,127.5,142.5,79.16666666666667
1513,-292.5,-75,236.25,247.5,157.5,161.25,142.5,161.25,82.08333333333333
1514,-277.5,-82.5,240,251.25,161.25,161.25,142.5,161.25,84.16666666666667
1515,-262.5,-15,217.5,221.25,131.25,135,112.5,131.25,74.58333333333333
1516,-258.75,60,198.75,202.5,116.25,120,93.75,120,72.5
1517,-240,33.75,191.25,195,116.25,116.25,90,120,69.16666666666667
1518,-213.75,11.25,187.5,187.5,105,108.75,82.5,112.5,64.58333333333333
1519,-206.25,33.75,183.75,183.75,105,108.75,82.5,105,66.25
1520,-217.5,56.25,195,191.25,120,123.75,101.25,116.25,76.25
1521,-213.75,67.5,198.75,195,123.75,131.25,108.75,123.75,81.66666666666667
1522,-213.75,41.25,195,187.5,120,127.5,105,116.25,75.41666666666667
1523,-247.5,11.25,191.25,183.75,112.5,120,93.75,105,63.333333333333336
1524,-303.75,0,191.25,176.25,108.75,112.5,82.5,93.75,51.25
1525,-337.5,11.25,195,180,116.25,116.25,82.5,97.5,51.25
1526,-337.5,41.25,187.5,176.25,112.5,108.75,71.25,93.75,50.416666666666664
1527,-356.25,30,176.25,157.5,93.75,90,56.25,78.75,36.25
1528,-330,3.75,172.5,153.75,90,93.75,60,78.75,35.833333333333336
1529,-266.25,-7.5,168.75,153.75,93.75,101.25,75,93.75,45.833333333333336
1530,-213.75,11.25,172.5,153.75,101.25,105,78.75,105,57.083333333333336
1531,-206.25,26.25,176.25,157.5,105,112.5,86.25,105,62.5
1532,-236.25,7.5,176.25,153.75,101.25,108.75,82.5,97.5,54.583333333333336
1533,-262.5,-26.25,183.75,150,97.5,101.25,71.25,82.5,44.166666666666664
1534,-266.25,-45,180,146.25,90,97.5,63.75,75,37.916666666666664
1535,-285,-48.75,172.5,146.25,90,101.25,71.25,78.75,36.25
1536,-311.25,-15,180,153.75,101.25,112.5,82.5,93.75,44.166666666666664
1537,-322.5,26.25,176.25,150,101.25,112.5,78.75,90,45.833333333333336
1538,-315,37.5,172.5,142.5,97.5,105,71.25,82.5,43.75
1539,-311.25,0,172.5,138.75,93.75,97.5,63.75,75,36.666666666666664
1540,-296.25,-71.25,187.5,153.75,105,105,71.25,86.25,37.916666666666664
1541,-243.75,-157.5,213.75,180,127.5,123.75,90,112.5,49.583333333333336
1542,-213.75,-153.75,210,172.5,116.25,105,71.25,97.5,45.0
1543,-228.75,-45,168.75,123.75,71.25,60,26.25,48.75,25.0
1544,-247.5,18.75,138.75,101.25,52.5,45,11.25,33.75,17.083333333333332
1545,-247.5,3.75,150,116.25,71.25,71.25,41.25,60,29.583333333333332
1546,-232.5,0,165,135,93.75,101.25,71.25,90,47.083333333333336
1547,-247.5,18.75,176.25,142.5,105,112.5,86.25,97.5,54.583333333333336
1548,-311.25,11.25,180,150,112.5,120,90,93.75,49.583333333333336
1549,-348.75,-7.5,183.75,157.5,120,127.5,93.75,93.75,46.666666666666664
1550,-337.5,-22.5,187.5,165,127.5,138.75,97.5,101.25,50.833333333333336
1551,-318.75,-26.25,187.5,165,127.5,135,97.5,105,52.5
1552,-307.5,-33.75,180,161.25,123.75,123.75,86.25,97.5,47.916666666666664
1553,-270,-37.5,172.5,153.75,112.5,112.5,78.75,97.5,46.666666666666664
1554,-243.75,-45,168.75,142.5,101.25,101.25,71.25,90,42.916666666666664
1555,-243.75,-48.75,172.5,142.5,101.25,101.25,75,86.25,42.916666666666664
1556,-247.5,-33.75,176.25,150,105,108.75,82.5,93.75,48.333333333333336
1557,-255,-30,172.5,146.25,101.25,105,75,86.25,44.583333333333336
1558,-270,-52.5,168.75,142.5,101.25,101.25,71.25,82.5,38.333333333333336
1559,-292.5,-63.75,168.75,146.25,112.5,112.5,78.75,86.25,38.75
1560,-311.25,-52.5,176.25,165,131.25,131.25,97.5,97.5,48.333333333333336
1561,-296.25,-37.5,191.25,180,150,153.75,116.25,120,64.16666666666667
1562,-296.25,-37.5,198.75,191.25,161.25,165,127.5,131.25,71.25
1563,-307.5,-18.75,187.5,176.25,150,153.75,116.25,120,64.16666666666667
1564,-273.75,41.25,161.25,150,123.75,123.75,86.25,93.75,56.25
1565,-217.5,56.25,142.5,135,108.75,108.75,71.25,82.5,54.166666666666664
1566,-187.5,26.25,135,127.5,101.25,101.25,67.5,75,49.583333333333336
1567,-210,7.5,138.75,131.25,101.25,105,71.25,78.75,47.083333333333336
1568,-217.5,7.5,146.25,135,105,112.5,82.5,86.25,50.833333333333336
1569,-198.75,26.25,142.5,131.25,105,116.25,86.25,86.25,55.0
1570,-217.5,22.5,131.25,123.75,97.5,108.75,78.75,78.75,47.083333333333336
1571,-273.75,-18.75,142.5,135,112.5,120,86.25,90,43.75
1572,-307.5,-52.5,161.25,153.75,131.25,138.75,105,101.25,47.916666666666664
1573,-300,-56.25,172.5,165,142.5,142.5,105,105,52.916666666666664
1574,-292.5,-30,165,161.25,135,135,93.75,93.75,51.25
1575,-277.5,11.25,150,146.25,123.75,120,78.75,82.5,48.333333333333336
1576,-266.25,15,146.25,142.5,120,116.25,75,86.25,48.333333333333336
1577,-221.25,15,138.75,135,112.5,108.75,71.25,86.25,49.583333333333336
1578,-180,15,131.25,127.5,105,105,67.5,78.75,50.0
1579,-176.25,22.5,138.75,135,116.25,116.25,82.5,86.25,57.916666666666664
1580,-191.25,37.5,135,131.25,112.5,112.5,82.5,86.25,56.25
1581,-202.5,37.5,127.5,123.75,105,108.75,78.75,82.5,51.25
1582,-198.75,30,127.5,127.5,108.75,112.5,78.75,82.5,52.083333333333336
1583,-221.25,33.75,123.75,120,105,108.75,75,75,46.666666666666664
1584,-251.25,45,135,127.5,116.25,120,82.5,78.75,50.416666666666664
1585,-262.5,41.25,150,146.25,135,142.5,101.25,97.5,61.25
1586,-262.5,3.75,161.25,157.5,150,157.5,116.25,112.5,66.25
1587,-251.25,-18.75,157.5,157.5,150,157.5,116.25,116.25,65.0
1588,-228.75,-18.75,153.75,153.75,146.25,153.75,116.25,116.25,65.83333333333333
1589,-176.25,-22.5,138.75,138.75,131.25,138.75,105,108.75,62.5
1590,-142.5,-22.5,127.5,123.75,120,131.25,101.25,105,60.416666666666664
1591,-150,-18.75,127.5,123.75,116.25,127.5,97.5,101.25,58.333333333333336
1592,-153.75,-18.75,131.25,127.5,120,131.25,101.25,101.25,60.0
1593,-172.5,-18.75,146.25,138.75,131.25,142.5,116.25,116.25,66.66666666666667
1594,-195,-22.5,142.5,135,131.25,142.5,112.5,112.5,62.083333333333336
1595,-221.25,-7.5,131.25,123.75,116.25,131.25,101.25,97.5,52.5
1596,-247.5,15,135,127.5,123.75,135,101.25,97.5,54.166666666666664
1597,-270,3.75,138.75,135,131.25,142.5,105,101.25,54.166666666666664
1598,-270,18.75,135,127.5,123.75,131.25,90,86.25,49.166666666666664
1599,-247.5,63.75,120,112.5,108.75,112.5,75,75,46.666666666666664
1600,-213.75,78.75,108.75,101.25,97.5,101.25,63.75,71.25,45.416666666666664
1601,-153.75,60,97.5,93.75,86.25,90,56.25,71.25,44.583333333333336
1602,-135,7.5,101.25,93.75,86.25,90,56.25,75,41.666666666666664
1603,-165,-22.5,101.25,90,82.5,86.25,56.25,71.25,33.333333333333336
1604,-195,-7.5,101.25,86.25,78.75,82.5,56.25,67.5,30.0
1605,-202.5,3.75,90,71.25,67.5,75,45,52.5,22.5
1606,-195,-3.75,93.75,75,67.5,78.75,52.5,56.25,25.0
1607,-206.25,-7.5,108.75,86.25,82.5,90,63.75,63.75,31.25
1608,-258.75,-7.5,101.25,78.75,75,86.25,56.25,56.25,20.833333333333332
1609,-296.25,-11.25,97.5,71.25,71.25,82.5,56.25,60,14.583333333333334
1610,-300,-3.75,93.75,63.75,67.5,82.5,52.5,60,12.916666666666666
1611,-277.5,11.25,93.75,63.75,67.5,82.5,56.25,63.75,17.916666666666668
1612,-262.5,0,105,82.5,82.5,97.5,71.25,82.5,28.75
1613,-217.5,7.5,97.5,78.75,82.5,93.75,67.5,78.75,32.083333333333336
1614,-150,0,101.25,82.5,86.25,90,63.75,75,38.75
1615,-123.75,-11.25,127.5,101.25,97.5,101.25,78.75,90,51.25
1616,-142.5,0,127.5,101.25,93.75,97.5,75,86.25,48.75
1617,-165,-37.5,127.5,101.25,93.75,97.5,78.75,90,42.916666666666664
1618,-168.75,-63.75,120,93.75,86.25,90,71.25,82.5,34.583333333333336
1619,-183.75,-18.75,105,78.75,71.25,78.75,56.25,63.75,27.916666666666668
1620,-228.75,18.75,101.25,71.25,63.75,71.25,48.75,56.25,22.5
1621,-251.25,30,105,75,71.25,78.75,52.5,63.75,25.0
1622,-243.75,22.5,108.75,78.75,75,78.75,45,60,25.0
1623,-225,11.25,108.75,78.75,78.75,78.75,48.75,63.75,27.083333333333332
1624,-195,3.75,105,82.5,78.75,86.25,56.25,75,32.5
1625,-176.25,-22.5,108.75,78.75,78.75,82.5,56.25,78.75,31.666666666666668
1626,-157.5,-48.75,112.5,78.75,75,78.75,56.25,82.5,30.833333333333332
1627,-150,-45,105,75,67.5,75,56.25,78.75,29.166666666666668
1628,-172.5,-41.25,108.75,75,67.5,75,56.25,75,27.083333333333332
1629,-180,-63.75,116.25,75,67.5,78.75,56.25,71.25,24.583333333333332
1630,-172.5,-86.25,116.25,75,71.25,78.75,56.25,71.25,23.333333333333332
1631,-198.75,-86.25,105,63.75,60,67.5,48.75,60,13.333333333333334
1632,-251.25,-67.5,101.25,60,56.25,63.75,41.25,52.5,6.25
1633,-288.75,-41.25,101.25,63.75,60,67.5,41.25,52.5,6.25
1634,-258.75,-18.75,97.5,60,52.5,63.75,41.25,52.5,10.0
1635,-225,-7.5,97.5,60,52.5,60,41.25,52.5,14.583333333333334
1636,-228.75,-11.25,101.25,60,56.25,60,37.5,56.25,14.583333333333334
1637,-187.5,7.5,93.75,52.5,45,48.75,30,52.5,15.833333333333334
1638,-153.75,15,67.5,26.25,18.75,22.5,7.5,30,3.75
1639,-165,-3.75,60,15,11.25,15,-3.75,18.75,-5.833333333333333
1640,-168.75,-15,63.75,22.5,18.75,22.5,3.75,18.75,-3.75
1641,-157.5,-18.75,71.25,26.25,26.25,37.5,15,30,3.3333333333333335
1642,-165,-48.75,78.75,33.75,33.75,48.75,26.25,41.25,5.416666666666667
1643,-191.25,-82.5,82.5,45,45,52.5,33.75,45,3.3333333333333335
1644,-217.5,-86.25,90,52.5,52.5,63.75,41.25,48.75,5.0
1645,-228.75,-52.5,90,52.5,52.5,63.75,41.25,48.75,7.5
1646,-232.5,-18.75,93.75,48.75,48.75,60,37.5,45,9.166666666666666
1647,-251.25,-26.25,101.25,52.5,56.25,63.75,37.5,48.75,9.166666666666666
1648,-225,-30,97.5,52.5,52.5,60,33.75,52.5,10.416666666666666
1649,-165,-26.25,90,48.75,45,52.5,33.75,52.5,14.583333333333334
1650,-135,-63.75,90,45,45,48.75,30,56.25,12.916666666666666
1651,-153.75,-116.25,108.75,63.75,60,60,41.25,63.75,14.166666666666666
1652,-168.75,-127.5,116.25,67.5,60,56.25,37.5,56.25,10.833333333333334
1653,-161.25,-63.75,93.75,41.25,33.75,30,11.25,30,1.6666666666666667
1654,-161.25,-18.75,71.25,22.5,11.25,11.25,-7.5,15,-6.25
1655,-183.75,-33.75,71.25,22.5,15,15,-3.75,15,-9.166666666666666
1656,-225,-37.5,82.5,30,22.5,30,7.5,26.25,-7.083333333333333
1657,-243.75,-22.5,75,26.25,22.5,30,7.5,22.5,-9.166666666666666
1658,-221.25,0,63.75,22.5,18.75,22.5,0,18.75,-8.333333333333334
1659,-228.75,-7.5,67.5,22.5,18.75,22.5,3.75,26.25,-8.333333333333334
1660,-228.75,-33.75,71.25,22.5,18.75,26.25,3.75,30,-10.0
1661,-187.5,-52.5,71.25,22.5,18.75,18.75,3.75,33.75,-7.916666666666667
1662,-153.75,-45,78.75,30,22.5,22.5,11.25,37.5,0.4166666666666667
1663,-138.75,-30,90,37.5,33.75,33.75,22.5,48.75,10.833333333333334
1664,-135,-30,93.75,37.5,37.5,41.25,30,52.5,14.166666666666666
1665,-146.25,-30,93.75,41.25,37.5,41.25,26.25,45,12.083333333333334
1666,-150,0,86.25,33.75,30,33.75,18.75,37.5,10.0
1667,-180,7.5,90,33.75,26.25,26.25,11.25,33.75,5.416666666666667
1668,-262.5,-26.25,101.25,37.5,30,30,11.25,22.5,-6.25
1669,-292.5,-30,112.5,48.75,37.5,37.5,15,26.25,-5.0
1670,-255,-11.25,116.25,48.75,41.25,41.25,15,30,2.9166666666666665
1671,-221.25,-11.25,120,56.25,45,45,22.5,45,11.25
1672,-187.5,-11.25,135,71.25,60,60,37.5,60,25.0
1673,-120,22.5,135,75,63.75,60,41.25,63.75,37.916666666666664
1674,-101.25,37.5,131.25,67.5,52.5,45,26.25,52.5,34.583333333333336
1675,-135,-3.75,131.25,63.75,45,41.25,22.5,41.25,22.916666666666668
1676,-150,-37.5,138.75,67.5,52.5,48.75,30,45,21.666666666666668
1677,-138.75,-33.75,150,78.75,63.75,60,41.25,56.25,30.833333333333332
1678,-123.75,-22.5,138.75,71.25,52.5,52.5,33.75,48.75,27.916666666666668
1679,-142.5,-37.5,131.25,63.75,48.75,45,26.25,41.25,19.583333333333332
1680,-191.25,-26.25,150,78.75,67.5,63.75,45,56.25,27.083333333333332
1681,-210,45,153.75,78.75,67.5,67.5,48.75,56.25,34.166666666666664
1682,-202.5,135,150,75,63.75,67.5,45,52.5,42.916666666666664
1683,-183.75,183.75,157.5,82.5,71.25,75,48.75,63.75,55.416666666666664
1684,-168.75,153.75,157.5,86.25,71.25,78.75,48.75,67.5,55.0
1685,-123.75,82.5,146.25,82.5,63.75,67.5,41.25,63.75,47.083333333333336
1686,-90,33.75,146.25,86.25,75,75,52.5,75,50.416666666666664
1687,-101.25,52.5,142.5,90,82.5,82.5,67.5,82.5,55.416666666666664
1688,-108.75,60,123.75,78.75,71.25,78.75,60,75,48.75
1689,-108.75,26.25,112.5,75,75,82.5,63.75,78.75,45.0
1690,-116.25,22.5,101.25,75,75,86.25,67.5,82.5,43.75
1691,-131.25,26.25,90,67.5,71.25,82.5,60,75,37.916666666666664
1692,-150,33.75,90,67.5,71.25,86.25,67.5,78.75,38.333333333333336
1693,-168.75,52.5,82.5,63.75,71.25,86.25,67.5,78.75,37.083333333333336
1694,-183.75,48.75,75,52.5,60,75,56.25,71.25,28.333333333333332
1695,-161.25,33.75,63.75,41.25,45,60,41.25,63.75,20.833333333333332
1696,-123.75,26.25,52.5,33.75,41.25,56.25,41.25,67.5,21.666666666666668
1697,-86.25,15,48.75,26.25,33.75,48.75,33.75,63.75,20.416666666666668
1698,-67.5,-3.75,45,18.75,18.75,33.75,18.75,48.75,12.5
1699,-86.25,-11.25,45,11.25,11.25,22.5,11.25,37.5,4.583333333333333
1700,-112.5,-18.75,52.5,15,11.25,26.25,15,33.75,2.5
1701,-131.25,-41.25,60,18.75,15,30,18.75,37.5,0.8333333333333334
1702,-153.75,-71.25,60,15,15,30,15,30,-6.666666666666667
1703,-153.75,-67.5,63.75,18.75,15,33.75,15,30,-5.0
1704,-161.25,-33.75,86.25,37.5,33.75,48.75,33.75,45,10.0
1705,-187.5,-11.25,90,37.5,33.75,48.75,30,41.25,9.166666666666666
1706,-202.5,-3.75,82.5,26.25,18.75,33.75,15,26.25,-0.4166666666666667
1707,-221.25,-45,67.5,11.25,0,11.25,-3.75,7.5,-19.166666666666668
1708,-217.5,-90,67.5,11.25,3.75,11.25,-7.5,11.25,-23.333333333333332
1709,-116.25,-63.75,71.25,18.75,7.5,11.25,-3.75,22.5,-5.833333333333333
1710,-41.25,-15,63.75,11.25,-3.75,3.75,-7.5,18.75,3.3333333333333335
1711,-78.75,-37.5,63.75,7.5,-7.5,3.75,-7.5,18.75,-4.166666666666667
1712,-116.25,-75,63.75,0,-11.25,0,-7.5,15,-14.583333333333334
1713,-116.25,-56.25,52.5,-15,-30,-11.25,-18.75,3.75,-21.25
1714,-123.75,-37.5,45,-22.5,-37.5,-18.75,-26.25,-7.5,-25.416666666666668
1715,-153.75,-26.25,45,-22.5,-41.25,-22.5,-33.75,-18.75,-30.416666666666668
1716,-206.25,-26.25,48.75,-22.5,-37.5,-18.75,-33.75,-22.5,-35.416666666666664
1717,-221.25,-37.5,63.75,-3.75,-15,0,-15,-3.75,-25.833333333333332
1718,-191.25,-30,63.75,-3.75,-15,3.75,-15,-3.75,-21.25
1719,-198.75,-45,41.25,-18.75,-30,-15,-33.75,-15,-35.0
1720,-195,-78.75,37.5,-22.5,-33.75,-18.75,-33.75,-15,-40.0
1721,-123.75,-86.25,41.25,-18.75,-33.75,-22.5,-33.75,-11.25,-32.083333333333336
1722,-60,-78.75,41.25,-22.5,-41.25,-30,-41.25,-11.25,-27.083333333333332
1723,-71.25,-86.25,48.75,-18.75,-37.5,-26.25,-37.5,-11.25,-26.666666666666668
1724,-112.5,-120,63.75,-7.5,-26.25,-15,-26.25,0,-27.083333333333332
1725,-131.25,-168.75,75,7.5,-11.25,-7.5,-18.75,7.5,-27.5
1726,-165,-165,63.75,-7.5,-26.25,-22.5,-33.75,-7.5,-40.416666666666664
1727,-240,-105,18.75,-56.25,-75,-67.5,-78.75,-56.25,-73.33333333333333
1728,-277.5,-86.25,11.25,-63.75,-78.75,-67.5,-82.5,-56.25,-77.91666666666667
1729,-221.25,-75,52.5,-15,-30,-18.75,-30,-7.5,-38.333333333333336
1730,-153.75,-26.25,71.25,7.5,-7.5,7.5,-7.5,15,-10.416666666666666
1731,-153.75,0,52.5,-11.25,-26.25,-7.5,-26.25,-3.75,-19.583333333333332
1732,-165,-7.5,52.5,-11.25,-30,-11.25,-33.75,-7.5,-23.75
1733,-123.75,-22.5,48.75,-15,-33.75,-18.75,-37.5,-11.25,-23.75
1734,-93.75,-48.75,41.25,-26.25,-48.75,-30,-52.5,-26.25,-31.666666666666668
1735,-78.75,-15,45,-26.25,-45,-30,-48.75,-22.5,-24.583333333333332
1736,-60,33.75,41.25,-22.5,-48.75,-37.5,-56.25,-26.25,-19.583333333333332
1737,-101.25,-22.5,37.5,-26.25,-67.5,-63.75,-82.5,-52.5,-42.083333333333336
1738,-172.5,-146.25,63.75,-3.75,-67.5,-82.5,-108.75,-86.25,-67.08333333333333
1739,-180,-191.25,131.25,67.5,-41.25,-82.5,-123.75,-105,-58.333333333333336
1740,-157.5,-180,221.25,161.25,-3.75,-78.75,-135,-123.75,-32.916666666666664
1741,-153.75,-187.5,315,255,33.75,-71.25,-142.5,-131.25,-9.166666666666666
1742,-142.5,-168.75,397.5,345,78.75,-52.5,-131.25,-120,22.916666666666668
1743,-108.75,-105,453.75,423.75,131.25,-26.25,-116.25,-108.75,60.416666666666664
1744,-48.75,-41.25,487.5,502.5,195,15,-86.25,-78.75,105.0
1745,56.25,41.25,536.25,603.75,281.25,86.25,-18.75,-15,174.58333333333334
1746,82.5,41.25,570,686.25,363.75,161.25,52.5,52.5,223.33333333333334
1747,56.25,18.75,581.25,742.5,431.25,225,116.25,101.25,252.5
1748,63.75,93.75,566.25,757.5,468.75,277.5,165,142.5,281.6666666666667
1749,101.25,225,558.75,810,543.75,367.5,255,225,342.9166666666667
1750,198.75,401.25,570,915,675,513.75,401.25,356.25,447.9166666666667
1751,311.25,596.25,566.25,978.75,798.75,667.5,558.75,495,552.5
1752,311.25,682.5,498.75,930,862.5,787.5,690,615,597.5
1753,288.75,746.25,393.75,843.75,930,930,836.25,750,635.4166666666666
1754,315,915,315,798.75,1031.25,1095,1008.75,907.5,709.5833333333334
1755,360,1128.75,247.5,761.25,1128.75,1263.75,1196.25,1083.75,796.6666666666666
1756,401.25,1346.25,78.75,615,1151.25,1398.75,1376.25,1267.5,848.3333333333334
1757,450,1500,-150,386.25,1132.5,1518.75,1545,1440,869.1666666666666
1758,483.75,1556.25,-341.25,187.5,1158.75,1672.5,1728.75,1597.5,893.75
1759,453.75,1567.5,-506.25,-41.25,1181.25,1826.25,1897.5,1728.75,900.8333333333334
1760,386.25,1545,-592.5,-206.25,1207.5,1942.5,2006.25,1788.75,897.5
1761,307.5,1451.25,-555,-213.75,1282.5,2036.25,2066.25,1788.75,907.0833333333334
1762,236.25,1353.75,-551.25,-247.5,1320,2085,2081.25,1758.75,892.9166666666666
1763,180,1293.75,-630,-390,1248.75,2032.5,2021.25,1680,826.25
1764,97.5,1151.25,-682.5,-536.25,1091.25,1845,1826.25,1492.5,698.3333333333334
1765,-7.5,945,-663.75,-626.25,866.25,1530,1507.5,1226.25,530.8333333333334
1766,-93.75,783.75,-626.25,-720,570,1132.5,1143.75,956.25,349.5833333333333
1767,-191.25,626.25,-588.75,-817.5,232.5,708.75,776.25,693.75,160.0
1768,-251.25,491.25,-570,-915,-71.25,337.5,446.25,453.75,-8.75
1769,-206.25,386.25,-577.5,-971.25,-270,90,210,273.75,-118.33333333333333
1770,-165,258.75,-555,-922.5,-307.5,-11.25,78.75,150,-163.75
1771,-187.5,157.5,-495,-825,-273.75,-33.75,11.25,60,-176.25
1772,-195,127.5,-442.5,-727.5,-221.25,-15,3.75,37.5,-159.16666666666666
1773,-183.75,82.5,-412.5,-630,-153.75,41.25,52.5,67.5,-126.25
1774,-195,15,-390,-543.75,-105,82.5,86.25,93.75,-106.25
1775,-228.75,-15,-367.5,-487.5,-112.5,63.75,75,86.25,-109.58333333333333
1776,-251.25,-26.25,-341.25,-450,-138.75,26.25,48.75,63.75,-118.75
1777,-236.25,-26.25,-296.25,-378.75,-116.25,30,48.75,63.75,-101.25
1778,-172.5,-3.75,-243.75,-296.25,-78.75,45,56.25,71.25,-69.16666666666667
1779,-135,41.25,-206.25,-225,-45,56.25,56.25,71.25,-42.916666666666664
1780,-127.5,105,-180,-172.5,-15,67.5,60,75,-20.833333333333332
1781,-63.75,142.5,-150,-127.5,7.5,75,63.75,86.25,3.75
1782,0,67.5,-90,-60,45,97.5,86.25,101.25,27.5
1783,-26.25,-67.5,-15,11.25,93.75,127.5,112.5,120,39.583333333333336
1784,-52.5,-52.5,15,30,97.5,120,97.5,105,40.0
1785,-45,75,-3.75,3.75,52.5,75,45,52.5,28.333333333333332
1786,-63.75,97.5,-3.75,0,37.5,48.75,18.75,26.25,17.916666666666668
1787,-108.75,33.75,22.5,22.5,45,52.5,22.5,26.25,12.916666666666666
1788,-112.5,15,48.75,48.75,67.5,71.25,41.25,45,25.0
1789,-71.25,60,90,93.75,105,108.75,75,82.5,60.416666666666664
1790,-63.75,75,105,108.75,112.5,112.5,82.5,86.25,68.75
1791,-93.75,37.5,86.25,82.5,82.5,82.5,52.5,56.25,42.916666666666664
1792,-86.25,60,86.25,82.5,78.75,75,45,52.5,43.75
1793,-22.5,67.5,93.75,97.5,82.5,78.75,52.5,63.75,57.083333333333336
1794,18.75,11.25,86.25,93.75,75,63.75,41.25,60,50.0
1795,0,-15,86.25,90,67.5,56.25,33.75,52.5,41.25
1796,-3.75,0,86.25,90,63.75,52.5,33.75,48.75,41.25
1797,0,3.75,93.75,97.5,67.5,48.75,26.25,48.75,42.916666666666664
1798,-3.75,-15,90,93.75,60,37.5,11.25,33.75,34.166666666666664
1799,-26.25,-48.75,90,90,52.5,33.75,3.75,22.5,24.166666666666668
1800,-82.5,-56.25,90,90,52.5,33.75,3.75,22.5,17.083333333333332
1801,-105,-3.75,78.75,86.25,45,30,-3.75,11.25,15.416666666666666
1802,-71.25,37.5,86.25,93.75,56.25,41.25,3.75,22.5,30.0
1803,-63.75,18.75,101.25,112.5,75,56.25,22.5,41.25,40.416666666666664
1804,-78.75,3.75,108.75,123.75,82.5,67.5,37.5,52.5,44.166666666666664
1805,-37.5,7.5,93.75,112.5,71.25,56.25,26.25,45,41.666666666666664
1806,18.75,15,75,97.5,52.5,33.75,7.5,30,36.666666666666664
1807,30,18.75,67.5,93.75,48.75,30,7.5,26.25,35.833333333333336
1808,37.5,22.5,82.5,105,56.25,41.25,15,33.75,43.75
1809,56.25,41.25,86.25,105,56.25,41.25,11.25,26.25,47.083333333333336
1810,33.75,33.75,82.5,105,56.25,41.25,11.25,26.25,43.333333333333336
1811,3.75,15,86.25,112.5,63.75,48.75,18.75,30,42.083333333333336
1812,-22.5,30,97.5,123.75,78.75,63.75,37.5,48.75,50.833333333333336
1813,-45,37.5,112.5,142.5,97.5,82.5,52.5,63.75,60.416666666666664
1814,-67.5,3.75,120,157.5,108.75,90,52.5,63.75,58.75
1815,-60,22.5,108.75,146.25,101.25,78.75,41.25,52.5,54.583333333333336
