samplenr,I,II,V1,V2,V3,V4,V5,V6,measurement
0,-26.25,7.5,0,-15,-165,-93.75,-93.75,-67.5,-50.416666666666664
1,-33.75,-3.75,-3.75,-22.5,-168.75,-97.5,-93.75,-67.5,-54.583333333333336
2,-30,0,-3.75,-26.25,-172.5,-97.5,-97.5,-63.75,-54.583333333333336
3,-26.25,0,-7.5,-30,-172.5,-97.5,-97.5,-67.5,-55.416666666666664
4,-30,0,-11.25,-33.75,-176.25,-105,-105,-78.75,-60.0
5,-37.5,0,-11.25,-37.5,-180,-105,-105,-75,-61.25
6,-37.5,11.25,-11.25,-41.25,-180,-105,-105,-78.75,-60.833333333333336
7,-45,11.25,-7.5,-41.25,-183.75,-108.75,-108.75,-82.5,-62.916666666666664
8,-56.25,0,-7.5,-45,-187.5,-116.25,-116.25,-90,-68.75
9,-48.75,7.5,-15,-48.75,-187.5,-116.25,-116.25,-90,-68.33333333333333
10,-33.75,11.25,-11.25,-45,-187.5,-112.5,-108.75,-82.5,-63.333333333333336
11,-26.25,11.25,-7.5,-33.75,-180,-97.5,-97.5,-67.5,-55.416666666666664
12,-22.5,3.75,-7.5,-33.75,-180,-93.75,-93.75,-63.75,-54.583333333333336
13,-30,-7.5,-18.75,-41.25,-183.75,-101.25,-97.5,-67.5,-60.833333333333336
14,-37.5,-7.5,-15,-45,-183.75,-101.25,-101.25,-67.5,-62.083333333333336
15,-37.5,0,-11.25,-45,-183.75,-101.25,-97.5,-63.75,-60.0
16,-33.75,-3.75,-15,-48.75,-187.5,-101.25,-101.25,-67.5,-62.083333333333336
17,-37.5,-15,-22.5,-56.25,-195,-112.5,-108.75,-78.75,-69.58333333333333
18,-52.5,-11.25,-22.5,-63.75,-202.5,-116.25,-116.25,-86.25,-74.58333333333333
19,-56.25,7.5,-18.75,-60,-198.75,-116.25,-116.25,-86.25,-71.66666666666667
20,-45,18.75,-18.75,-60,-198.75,-116.25,-116.25,-86.25,-69.16666666666667
21,-45,7.5,-18.75,-60,-202.5,-116.25,-116.25,-86.25,-70.83333333333333
22,-41.25,3.75,-18.75,-60,-198.75,-116.25,-112.5,-82.5,-69.58333333333333
23,-22.5,7.5,-18.75,-52.5,-198.75,-112.5,-112.5,-78.75,-65.41666666666667
24,-15,7.5,-22.5,-52.5,-198.75,-112.5,-108.75,-75,-64.16666666666667
25,-26.25,3.75,-22.5,-56.25,-195,-108.75,-105,-67.5,-64.16666666666667
26,-48.75,-18.75,-30,-67.5,-206.25,-116.25,-112.5,-75,-75.0
27,-41.25,-22.5,-33.75,-71.25,-206.25,-116.25,-116.25,-78.75,-76.25
28,-30,-7.5,-30,-71.25,-206.25,-116.25,-112.5,-71.25,-71.66666666666667
29,-37.5,-3.75,-33.75,-75,-213.75,-120,-116.25,-78.75,-75.41666666666667
30,-52.5,-3.75,-33.75,-78.75,-217.5,-123.75,-120,-82.5,-79.16666666666667
31,-52.5,0,-41.25,-90,-225,-135,-131.25,-97.5,-85.83333333333333
32,-48.75,3.75,-33.75,-82.5,-221.25,-135,-131.25,-101.25,-83.33333333333333
33,-45,3.75,-33.75,-82.5,-221.25,-138.75,-131.25,-101.25,-83.33333333333333
34,-37.5,11.25,-30,-78.75,-213.75,-131.25,-127.5,-93.75,-77.91666666666667
35,-22.5,18.75,-30,-71.25,-206.25,-120,-112.5,-78.75,-69.16666666666667
36,-15,7.5,-30,-71.25,-202.5,-116.25,-108.75,-71.25,-67.5
37,-22.5,-11.25,-30,-75,-206.25,-116.25,-108.75,-71.25,-71.25
38,-33.75,-18.75,-30,-78.75,-206.25,-116.25,-108.75,-71.25,-73.75
39,-41.25,-22.5,-33.75,-82.5,-210,-123.75,-116.25,-75,-78.33333333333333
40,-41.25,-15,-37.5,-86.25,-213.75,-127.5,-116.25,-75,-79.16666666666667
41,-45,-7.5,-37.5,-90,-217.5,-131.25,-120,-78.75,-80.83333333333333
42,-56.25,-7.5,-41.25,-97.5,-221.25,-138.75,-127.5,-90,-86.66666666666667
43,-60,-3.75,-45,-101.25,-225,-142.5,-135,-97.5,-90.0
44,-63.75,0,-41.25,-101.25,-228.75,-142.5,-138.75,-101.25,-90.83333333333333
45,-60,7.5,-37.5,-101.25,-228.75,-142.5,-135,-101.25,-88.75
46,-48.75,11.25,-33.75,-90,-221.25,-135,-127.5,-93.75,-82.08333333333333
47,-33.75,7.5,-30,-82.5,-210,-127.5,-120,-82.5,-75.41666666666667
48,-30,0,-37.5,-82.5,-213.75,-127.5,-116.25,-75,-75.83333333333333
49,-41.25,-15,-45,-93.75,-221.25,-131.25,-120,-78.75,-82.91666666666667
50,-45,-11.25,-45,-97.5,-221.25,-131.25,-123.75,-82.5,-84.16666666666667
51,-41.25,-3.75,-45,-97.5,-221.25,-131.25,-120,-78.75,-82.08333333333333
52,-45,-7.5,-45,-101.25,-221.25,-135,-123.75,-82.5,-84.58333333333333
53,-52.5,-15,-48.75,-105,-225,-138.75,-127.5,-86.25,-88.75
54,-63.75,-22.5,-56.25,-120,-236.25,-150,-135,-93.75,-97.5
55,-75,-30,-56.25,-120,-240,-153.75,-146.25,-105,-102.91666666666667
56,-67.5,-18.75,-56.25,-120,-240,-153.75,-150,-112.5,-102.08333333333333
57,-60,-7.5,-48.75,-116.25,-236.25,-150,-142.5,-105,-96.25
58,-48.75,0,-52.5,-116.25,-236.25,-150,-142.5,-101.25,-94.16666666666667
59,-41.25,3.75,-48.75,-108.75,-232.5,-142.5,-135,-93.75,-88.75
60,-33.75,0,-48.75,-101.25,-225,-135,-127.5,-86.25,-84.16666666666667
61,-41.25,-11.25,-52.5,-108.75,-225,-138.75,-127.5,-86.25,-87.91666666666667
62,-45,-11.25,-48.75,-108.75,-225,-138.75,-127.5,-82.5,-87.5
63,-48.75,-15,-56.25,-116.25,-236.25,-146.25,-135,-90,-93.75
64,-48.75,-22.5,-52.5,-120,-236.25,-146.25,-138.75,-90,-95.0
65,-60,-30,-48.75,-116.25,-232.5,-142.5,-135,-90,-95.0
66,-75,-30,-52.5,-123.75,-240,-150,-142.5,-101.25,-101.66666666666667
67,-67.5,-15,-56.25,-127.5,-243.75,-153.75,-150,-105,-102.08333333333333
68,-63.75,-11.25,-56.25,-127.5,-243.75,-157.5,-153.75,-112.5,-102.91666666666667
69,-56.25,-11.25,-52.5,-123.75,-240,-153.75,-146.25,-108.75,-99.16666666666667
70,-48.75,-7.5,-48.75,-116.25,-236.25,-150,-142.5,-101.25,-94.58333333333333
71,-37.5,0,-48.75,-112.5,-228.75,-138.75,-131.25,-86.25,-87.08333333333333
72,-37.5,-15,-52.5,-112.5,-228.75,-138.75,-127.5,-78.75,-87.91666666666667
73,-45,-30,-56.25,-120,-236.25,-142.5,-131.25,-82.5,-93.75
74,-45,-26.25,-56.25,-120,-236.25,-142.5,-135,-86.25,-94.16666666666667
75,-37.5,-11.25,-52.5,-116.25,-228.75,-138.75,-131.25,-82.5,-88.75
76,-45,-11.25,-56.25,-116.25,-232.5,-138.75,-131.25,-86.25,-90.83333333333333
77,-60,-22.5,-60,-127.5,-240,-146.25,-138.75,-93.75,-98.75
78,-63.75,-26.25,-60,-131.25,-243.75,-153.75,-146.25,-101.25,-102.91666666666667
79,-63.75,-15,-60,-135,-247.5,-157.5,-146.25,-105,-103.33333333333333
80,-56.25,-3.75,-56.25,-138.75,-255,-161.25,-150,-108.75,-103.33333333333333
81,-56.25,-3.75,-56.25,-127.5,-247.5,-157.5,-150,-108.75,-100.83333333333333
82,-52.5,-7.5,-52.5,-123.75,-240,-153.75,-142.5,-105,-97.5
83,-37.5,-7.5,-45,-116.25,-232.5,-142.5,-131.25,-90,-89.16666666666667
84,-30,-7.5,-48.75,-112.5,-228.75,-135,-123.75,-82.5,-85.41666666666667
85,-45,-22.5,-52.5,-116.25,-232.5,-142.5,-131.25,-82.5,-91.66666666666667
86,-52.5,-30,-52.5,-120,-236.25,-142.5,-131.25,-82.5,-94.16666666666667
87,-52.5,-26.25,-52.5,-120,-236.25,-138.75,-131.25,-82.5,-93.33333333333333
88,-52.5,-22.5,-52.5,-120,-232.5,-138.75,-127.5,-82.5,-92.08333333333333
89,-60,-30,-56.25,-127.5,-240,-142.5,-135,-90,-97.91666666666667
90,-67.5,-26.25,-63.75,-138.75,-247.5,-153.75,-142.5,-97.5,-104.16666666666667
91,-71.25,-18.75,-60,-138.75,-251.25,-157.5,-146.25,-105,-105.41666666666667
92,-60,-15,-60,-135,-251.25,-161.25,-150,-108.75,-104.58333333333333
93,-56.25,-11.25,-56.25,-131.25,-243.75,-153.75,-146.25,-105,-100.41666666666667
94,-56.25,-3.75,-56.25,-127.5,-243.75,-153.75,-142.5,-105,-98.75
95,-41.25,0,-52.5,-120,-236.25,-146.25,-135,-93.75,-91.66666666666667
96,-30,-3.75,-52.5,-116.25,-236.25,-142.5,-127.5,-86.25,-88.33333333333333
97,-41.25,-15,-56.25,-120,-240,-146.25,-131.25,-86.25,-92.91666666666667
98,-45,-22.5,-56.25,-123.75,-243.75,-146.25,-135,-90,-95.83333333333333
99,-48.75,-30,-56.25,-123.75,-240,-146.25,-135,-90,-96.66666666666667
100,-48.75,-30,-56.25,-120,-240,-146.25,-131.25,-90,-95.83333333333333
101,-48.75,-18.75,-52.5,-123.75,-243.75,-150,-135,-90,-95.83333333333333
102,-52.5,-7.5,-60,-131.25,-247.5,-153.75,-142.5,-101.25,-99.58333333333333
103,-67.5,-3.75,-56.25,-127.5,-247.5,-153.75,-142.5,-101.25,-100.0
104,-75,-15,-52.5,-127.5,-247.5,-157.5,-146.25,-108.75,-103.33333333333333
105,-78.75,-33.75,-56.25,-131.25,-251.25,-165,-150,-112.5,-108.75
106,-67.5,-22.5,-48.75,-127.5,-247.5,-157.5,-146.25,-108.75,-102.91666666666667
107,-48.75,-7.5,-45,-112.5,-232.5,-146.25,-131.25,-93.75,-90.83333333333333
108,-41.25,-11.25,-48.75,-116.25,-228.75,-138.75,-123.75,-86.25,-88.33333333333333
109,-52.5,-26.25,-52.5,-127.5,-240,-146.25,-131.25,-90,-96.25
110,-56.25,-37.5,-56.25,-127.5,-240,-150,-135,-90,-99.16666666666667
111,-48.75,-37.5,-56.25,-123.75,-236.25,-146.25,-135,-90,-97.08333333333333
112,-48.75,-30,-56.25,-127.5,-240,-146.25,-135,-90,-97.08333333333333
113,-56.25,-26.25,-60,-131.25,-243.75,-150,-138.75,-93.75,-100.0
114,-63.75,-26.25,-63.75,-138.75,-251.25,-153.75,-142.5,-101.25,-104.58333333333333
115,-71.25,-22.5,-63.75,-142.5,-255,-157.5,-150,-108.75,-107.91666666666667
116,-75,-15,-56.25,-138.75,-255,-161.25,-150,-108.75,-106.66666666666667
117,-67.5,-11.25,-56.25,-138.75,-255,-161.25,-150,-108.75,-105.41666666666667
118,-56.25,-7.5,-56.25,-131.25,-247.5,-157.5,-146.25,-105,-100.83333333333333
119,-48.75,-3.75,-48.75,-120,-236.25,-150,-135,-93.75,-92.91666666666667
120,-37.5,-7.5,-52.5,-112.5,-228.75,-138.75,-127.5,-82.5,-87.5
121,-45,-22.5,-52.5,-127.5,-243.75,-146.25,-127.5,-86.25,-94.58333333333333
122,-52.5,-26.25,-52.5,-142.5,-258.75,-150,-131.25,-86.25,-100.0
123,-52.5,-18.75,-52.5,-127.5,-243.75,-146.25,-131.25,-86.25,-95.41666666666667
124,-52.5,-18.75,-52.5,-120,-236.25,-142.5,-131.25,-86.25,-93.33333333333333
125,-60,-22.5,-56.25,-131.25,-243.75,-150,-138.75,-93.75,-99.58333333333333
126,-63.75,-11.25,-56.25,-131.25,-247.5,-153.75,-142.5,-101.25,-100.83333333333333
127,-67.5,7.5,-45,-123.75,-240,-150,-138.75,-101.25,-95.41666666666667
128,-71.25,11.25,-41.25,-123.75,-240,-150,-138.75,-101.25,-95.0
129,-67.5,22.5,-30,-112.5,-228.75,-142.5,-127.5,-93.75,-86.66666666666667
130,-52.5,48.75,-22.5,-101.25,-217.5,-131.25,-120,-82.5,-75.41666666666667
131,-26.25,67.5,-11.25,-86.25,-206.25,-120,-105,-67.5,-61.666666666666664
132,-18.75,63.75,3.75,-75,-198.75,-108.75,-93.75,-56.25,-53.75
133,-41.25,45,0,-82.5,-202.5,-112.5,-97.5,-60,-61.25
134,-56.25,33.75,-3.75,-86.25,-206.25,-116.25,-101.25,-63.75,-66.66666666666667
135,-60,30,-3.75,-90,-206.25,-116.25,-105,-67.5,-68.75
136,-52.5,37.5,3.75,-82.5,-202.5,-112.5,-101.25,-63.75,-63.75
137,-48.75,41.25,0,-86.25,-206.25,-116.25,-105,-67.5,-65.41666666666667
138,-48.75,41.25,-7.5,-93.75,-213.75,-127.5,-116.25,-78.75,-71.66666666666667
139,-56.25,45,-3.75,-93.75,-213.75,-127.5,-116.25,-78.75,-71.66666666666667
140,-56.25,45,3.75,-90,-210,-123.75,-116.25,-78.75,-69.58333333333333
141,-45,56.25,7.5,-78.75,-202.5,-120,-112.5,-78.75,-63.75
142,-37.5,71.25,15,-71.25,-191.25,-108.75,-101.25,-63.75,-54.166666666666664
143,-30,78.75,22.5,-56.25,-180,-97.5,-86.25,-48.75,-44.166666666666664
144,-22.5,71.25,22.5,-52.5,-176.25,-93.75,-82.5,-45,-42.083333333333336
145,-30,60,18.75,-60,-180,-93.75,-86.25,-48.75,-46.666666666666664
146,-37.5,67.5,11.25,-63.75,-180,-93.75,-82.5,-41.25,-46.666666666666664
147,-26.25,86.25,0,-63.75,-176.25,-86.25,-75,-33.75,-41.666666666666664
148,-11.25,93.75,-15,-67.5,-176.25,-82.5,-71.25,-30,-40.0
149,-15,78.75,-37.5,-82.5,-187.5,-97.5,-82.5,-41.25,-51.666666666666664
150,-30,63.75,-56.25,-105,-206.25,-112.5,-97.5,-56.25,-66.66666666666667
151,-30,67.5,-60,-112.5,-213.75,-120,-108.75,-63.75,-71.25
152,-15,78.75,-60,-108.75,-210,-116.25,-105,-63.75,-66.66666666666667
153,-15,82.5,-56.25,-105,-206.25,-116.25,-101.25,-60,-64.16666666666667
154,-11.25,86.25,-56.25,-101.25,-206.25,-108.75,-97.5,-52.5,-60.833333333333336
155,3.75,78.75,-60,-101.25,-206.25,-108.75,-93.75,-48.75,-59.583333333333336
156,15,63.75,-67.5,-101.25,-202.5,-105,-90,-41.25,-58.75
157,3.75,37.5,-78.75,-116.25,-213.75,-116.25,-97.5,-45,-69.58333333333333
158,-3.75,22.5,-86.25,-127.5,-228.75,-123.75,-105,-52.5,-78.33333333333333
159,-7.5,33.75,-78.75,-131.25,-228.75,-123.75,-105,-52.5,-77.08333333333333
160,-11.25,41.25,-71.25,-123.75,-221.25,-120,-101.25,-52.5,-73.33333333333333
161,-7.5,33.75,-75,-127.5,-225,-127.5,-112.5,-63.75,-78.33333333333333
162,-15,26.25,-71.25,-131.25,-228.75,-135,-120,-75,-83.33333333333333
163,-22.5,30,-67.5,-131.25,-232.5,-138.75,-123.75,-82.5,-85.41666666666667
164,-26.25,41.25,-63.75,-123.75,-228.75,-135,-120,-78.75,-81.66666666666667
165,-22.5,48.75,-56.25,-120,-221.25,-131.25,-116.25,-75,-77.08333333333333
166,-15,52.5,-56.25,-116.25,-221.25,-131.25,-112.5,-71.25,-74.58333333333333
167,-11.25,52.5,-48.75,-108.75,-213.75,-123.75,-105,-63.75,-69.16666666666667
168,-11.25,26.25,-52.5,-112.5,-221.25,-127.5,-108.75,-63.75,-74.58333333333333
169,-22.5,-3.75,-63.75,-123.75,-232.5,-138.75,-116.25,-71.25,-85.83333333333333
170,-30,0,-71.25,-135,-240,-142.5,-123.75,-78.75,-91.25
171,-33.75,11.25,-67.5,-131.25,-236.25,-138.75,-123.75,-75,-88.33333333333333
172,-37.5,7.5,-63.75,-131.25,-240,-146.25,-127.5,-82.5,-91.25
173,-48.75,-11.25,-71.25,-142.5,-247.5,-153.75,-135,-90,-100.0
174,-60,-18.75,-75,-153.75,-258.75,-165,-146.25,-105,-109.16666666666667
175,-78.75,-22.5,-75,-161.25,-266.25,-176.25,-157.5,-120,-117.5
176,-82.5,-26.25,-71.25,-168.75,-277.5,-183.75,-165,-127.5,-122.5
177,-63.75,-18.75,-67.5,-157.5,-266.25,-176.25,-157.5,-120,-114.16666666666667
178,-56.25,-11.25,-63.75,-146.25,-255,-165,-150,-116.25,-107.08333333333333
179,-56.25,-15,-67.5,-146.25,-255,-165,-142.5,-108.75,-106.25
180,-56.25,-30,-67.5,-142.5,-251.25,-157.5,-135,-93.75,-103.75
181,-56.25,-33.75,-71.25,-142.5,-247.5,-157.5,-131.25,-93.75,-103.75
182,-60,-30,-67.5,-138.75,-243.75,-150,-127.5,-93.75,-101.25
183,-63.75,-30,-63.75,-138.75,-243.75,-150,-127.5,-90,-100.83333333333333
184,-75,-41.25,-63.75,-142.5,-247.5,-153.75,-131.25,-93.75,-105.41666666666667
185,-82.5,-41.25,-71.25,-150,-255,-161.25,-138.75,-101.25,-111.25
186,-78.75,-33.75,-71.25,-153.75,-258.75,-165,-142.5,-108.75,-112.5
187,-78.75,-33.75,-75,-157.5,-262.5,-168.75,-150,-116.25,-115.83333333333333
188,-67.5,-26.25,-75,-157.5,-262.5,-172.5,-153.75,-120,-115.0
189,-63.75,-18.75,-71.25,-153.75,-262.5,-172.5,-153.75,-120,-112.91666666666667
190,-71.25,-18.75,-71.25,-150,-258.75,-168.75,-150,-116.25,-111.66666666666667
191,-60,-22.5,-67.5,-142.5,-251.25,-161.25,-142.5,-108.75,-106.25
192,-37.5,-22.5,-56.25,-131.25,-240,-146.25,-127.5,-93.75,-95.0
193,-41.25,-26.25,-63.75,-135,-243.75,-150,-131.25,-93.75,-98.33333333333333
194,-63.75,-37.5,-71.25,-138.75,-247.5,-157.5,-138.75,-101.25,-106.25
195,-63.75,-37.5,-67.5,-138.75,-247.5,-157.5,-138.75,-105,-106.25
196,-52.5,-41.25,-60,-131.25,-251.25,-165,-146.25,-112.5,-106.66666666666667
197,-56.25,-71.25,-37.5,-112.5,-251.25,-176.25,-168.75,-135,-112.08333333333333
198,-67.5,-101.25,7.5,-71.25,-243.75,-191.25,-191.25,-165,-113.75
199,-71.25,-123.75,71.25,-22.5,-236.25,-210,-217.5,-198.75,-112.08333333333333
200,-52.5,-146.25,127.5,18.75,-236.25,-232.5,-247.5,-236.25,-111.66666666666667
201,-33.75,-157.5,180,63.75,-232.5,-243.75,-266.25,-251.25,-104.58333333333333
202,-18.75,-131.25,236.25,131.25,-195,-221.25,-247.5,-236.25,-75.83333333333333
203,11.25,-86.25,288.75,221.25,-127.5,-172.5,-206.25,-198.75,-30.0
204,56.25,-33.75,333.75,315,-52.5,-108.75,-150,-146.25,23.75
205,93.75,22.5,367.5,393.75,26.25,-41.25,-86.25,-93.75,75.83333333333333
206,135,97.5,390,461.25,101.25,33.75,-18.75,-30,130.0
207,168.75,168.75,408.75,517.5,168.75,108.75,52.5,37.5,181.25
208,217.5,255,423.75,581.25,243.75,191.25,138.75,116.25,240.83333333333334
209,266.25,356.25,416.25,637.5,337.5,296.25,247.5,217.5,308.3333333333333
210,311.25,465,378.75,667.5,423.75,412.5,363.75,330,372.5
211,352.5,600,307.5,660,506.25,525,483.75,442.5,430.8333333333333
212,405,761.25,221.25,637.5,592.5,656.25,626.25,581.25,497.9166666666667
213,446.25,926.25,168.75,645,701.25,806.25,787.5,735,579.5833333333334
214,457.5,1117.5,138.75,645,806.25,960,952.5,900,664.1666666666666
215,465,1350,30,536.25,855,1102.5,1132.5,1091.25,729.1666666666666
216,480,1582.5,-135,378.75,877.5,1245,1323.75,1305,784.1666666666666
217,498.75,1736.25,-311.25,191.25,881.25,1353.75,1470,1466.25,809.5833333333334
218,480,1818.75,-487.5,-7.5,870,1440,1575,1567.5,806.25
219,420,1878.75,-600,-127.5,903.75,1530,1672.5,1650,814.1666666666666
220,326.25,1867.5,-611.25,-146.25,960,1601.25,1717.5,1676.25,821.25
221,232.5,1785,-603.75,-165,990,1616.25,1702.5,1627.5,798.3333333333334
222,157.5,1698.75,-660,-262.5,956.25,1578.75,1642.5,1552.5,740.4166666666666
223,86.25,1586.25,-746.25,-420,821.25,1436.25,1496.25,1413.75,630.4166666666666
224,-22.5,1372.5,-753.75,-540,618.75,1181.25,1241.25,1181.25,475.4166666666667
225,-120,1125,-716.25,-637.5,363.75,866.25,941.25,911.25,303.75
226,-168.75,900,-720,-787.5,48.75,521.25,641.25,667.5,122.5
227,-202.5,686.25,-742.5,-945,-270,187.5,352.5,435,-55.416666666666664
228,-232.5,491.25,-731.25,-1020,-472.5,-41.25,135,251.25,-180.0
229,-255,330,-686.25,-990,-528.75,-146.25,7.5,120,-238.75
230,-258.75,202.5,-633.75,-888.75,-495,-172.5,-63.75,22.5,-254.16666666666666
231,-240,138.75,-585,-761.25,-420,-157.5,-86.25,-26.25,-237.5
232,-217.5,127.5,-528.75,-645,-341.25,-112.5,-63.75,-18.75,-200.0
233,-198.75,123.75,-480,-558.75,-296.25,-78.75,-37.5,-7.5,-170.41666666666666
234,-191.25,105,-435,-510,-292.5,-86.25,-45,-15,-163.33333333333334
235,-176.25,105,-378.75,-450,-288.75,-90,-52.5,-26.25,-150.83333333333334
236,-146.25,127.5,-318.75,-363.75,-251.25,-75,-41.25,-18.75,-120.83333333333333
237,-116.25,161.25,-262.5,-277.5,-198.75,-45,-15,3.75,-83.33333333333333
238,-93.75,176.25,-228.75,-221.25,-168.75,-30,-3.75,11.25,-62.083333333333336
239,-71.25,168.75,-183.75,-161.25,-138.75,-11.25,7.5,18.75,-41.25
240,-56.25,153.75,-135,-101.25,-101.25,11.25,26.25,30,-19.166666666666668
241,-52.5,135,-101.25,-75,-93.75,11.25,18.75,26.25,-14.583333333333334
242,-56.25,120,-86.25,-67.5,-97.5,0,7.5,11.25,-18.75
243,-48.75,108.75,-71.25,-60,-101.25,-11.25,-3.75,0,-20.833333333333332
244,-45,93.75,-60,-52.5,-105,-18.75,-11.25,-7.5,-22.916666666666668
245,-45,86.25,-48.75,-45,-105,-26.25,-22.5,-15,-24.583333333333332
246,-56.25,75,-45,-48.75,-116.25,-41.25,-37.5,-33.75,-33.75
247,-60,67.5,-48.75,-56.25,-131.25,-56.25,-56.25,-48.75,-43.333333333333336
248,-67.5,63.75,-45,-56.25,-135,-60,-63.75,-56.25,-46.666666666666664
249,-67.5,60,-41.25,-52.5,-138.75,-67.5,-67.5,-63.75,-48.75
250,-63.75,52.5,-33.75,-45,-142.5,-75,-71.25,-67.5,-49.583333333333336
251,-52.5,52.5,-26.25,-33.75,-138.75,-71.25,-67.5,-63.75,-44.583333333333336
252,-48.75,45,-26.25,-30,-138.75,-67.5,-67.5,-60,-43.75
253,-41.25,33.75,-33.75,-37.5,-146.25,-75,-75,-63.75,-48.75
254,-30,33.75,-30,-33.75,-146.25,-78.75,-75,-63.75,-47.083333333333336
255,-33.75,41.25,-22.5,-26.25,-142.5,-71.25,-71.25,-60,-42.916666666666664
256,-37.5,41.25,-22.5,-30,-146.25,-75,-71.25,-60,-44.583333333333336
257,-45,26.25,-26.25,-33.75,-153.75,-82.5,-78.75,-67.5,-51.25
258,-48.75,15,-26.25,-33.75,-153.75,-86.25,-86.25,-75,-55.0
259,-60,7.5,-22.5,-33.75,-153.75,-90,-90,-78.75,-57.916666666666664
260,-52.5,18.75,-15,-26.25,-150,-86.25,-82.5,-75,-52.083333333333336
261,-45,33.75,-11.25,-22.5,-146.25,-82.5,-82.5,-71.25,-47.5
262,-41.25,37.5,-11.25,-18.75,-150,-82.5,-82.5,-71.25,-46.666666666666664
263,-37.5,37.5,-7.5,-7.5,-138.75,-75,-75,-63.75,-40.833333333333336
264,-22.5,33.75,-3.75,0,-135,-71.25,-67.5,-56.25,-35.833333333333336
265,-18.75,26.25,-7.5,-3.75,-135,-71.25,-63.75,-52.5,-36.25
266,-18.75,26.25,-11.25,-7.5,-138.75,-71.25,-67.5,-52.5,-37.916666666666664
267,-18.75,33.75,-7.5,-7.5,-138.75,-71.25,-63.75,-52.5,-36.25
268,-22.5,30,-7.5,-7.5,-135,-71.25,-63.75,-52.5,-36.666666666666664
269,-37.5,18.75,-7.5,-11.25,-138.75,-75,-71.25,-56.25,-42.083333333333336
270,-41.25,18.75,-7.5,-11.25,-142.5,-75,-75,-60,-43.75
271,-30,22.5,-15,-18.75,-146.25,-82.5,-78.75,-71.25,-46.666666666666664
272,-26.25,30,-11.25,-15,-146.25,-82.5,-78.75,-71.25,-44.583333333333336
273,-22.5,41.25,-3.75,-7.5,-138.75,-75,-75,-67.5,-38.75
274,-22.5,41.25,-3.75,-3.75,-131.25,-75,-75,-63.75,-37.083333333333336
275,-11.25,48.75,-3.75,3.75,-127.5,-71.25,-67.5,-60,-32.083333333333336
276,0,48.75,0,15,-120,-60,-60,-48.75,-25.0
277,3.75,37.5,0,18.75,-116.25,-56.25,-56.25,-41.25,-23.333333333333332
278,0,30,-3.75,15,-116.25,-56.25,-56.25,-41.25,-25.416666666666668
279,-3.75,33.75,0,22.5,-112.5,-52.5,-48.75,-33.75,-21.666666666666668
280,-3.75,41.25,3.75,26.25,-105,-48.75,-45,-30,-17.916666666666668
281,0,45,7.5,30,-101.25,-45,-41.25,-26.25,-14.583333333333334
282,-3.75,41.25,-3.75,18.75,-112.5,-52.5,-52.5,-37.5,-22.5
283,-11.25,41.25,0,18.75,-108.75,-52.5,-52.5,-45,-23.333333333333332
284,-7.5,48.75,3.75,26.25,-105,-45,-48.75,-41.25,-18.75
285,0,60,11.25,33.75,-97.5,-41.25,-45,-33.75,-12.5
286,-3.75,63.75,11.25,37.5,-93.75,-41.25,-41.25,-33.75,-11.25
287,3.75,67.5,11.25,45,-90,-33.75,-37.5,-30,-7.083333333333333
288,18.75,67.5,11.25,56.25,-82.5,-30,-26.25,-18.75,-0.4166666666666667
289,26.25,60,7.5,52.5,-82.5,-30,-30,-18.75,-1.6666666666666667
290,22.5,52.5,3.75,48.75,-86.25,-30,-26.25,-15,-3.3333333333333335
291,15,45,3.75,48.75,-86.25,-30,-26.25,-15,-5.0
292,7.5,41.25,3.75,52.5,-78.75,-22.5,-18.75,-11.25,-2.9166666666666665
293,15,45,3.75,56.25,-75,-18.75,-15,-3.75,0.8333333333333334
294,26.25,52.5,0,52.5,-78.75,-18.75,-18.75,-7.5,0.8333333333333334
295,26.25,71.25,0,45,-90,-30,-30,-22.5,-3.3333333333333335
296,11.25,82.5,3.75,45,-90,-33.75,-37.5,-30,-5.416666666666667
297,7.5,82.5,11.25,60,-75,-22.5,-26.25,-22.5,1.6666666666666667
298,18.75,78.75,7.5,67.5,-71.25,-22.5,-26.25,-18.75,3.75
299,33.75,78.75,18.75,78.75,-60,-7.5,-15,-7.5,13.333333333333334
300,45,78.75,22.5,90,-48.75,0,0,7.5,21.666666666666668
301,37.5,71.25,15,86.25,-52.5,-3.75,-3.75,3.75,17.083333333333332
302,33.75,71.25,7.5,78.75,-56.25,-7.5,-7.5,0,13.333333333333334
303,37.5,78.75,11.25,82.5,-52.5,0,-3.75,7.5,17.916666666666668
304,45,78.75,18.75,93.75,-45,7.5,3.75,11.25,23.75
305,48.75,78.75,15,93.75,-45,7.5,7.5,11.25,24.166666666666668
306,37.5,78.75,15,93.75,-41.25,7.5,7.5,11.25,23.333333333333332
307,33.75,82.5,15,93.75,-45,3.75,3.75,7.5,21.666666666666668
308,33.75,93.75,18.75,97.5,-41.25,7.5,3.75,11.25,25.0
309,37.5,93.75,22.5,105,-33.75,11.25,11.25,15,29.166666666666668
310,45,90,22.5,108.75,-33.75,15,11.25,18.75,30.833333333333332
311,56.25,105,22.5,112.5,-26.25,22.5,18.75,22.5,37.083333333333336
312,71.25,112.5,26.25,127.5,-15,30,26.25,37.5,46.25
313,75,112.5,30,131.25,-11.25,33.75,37.5,45,50.416666666666664
314,71.25,116.25,26.25,131.25,-11.25,37.5,37.5,45,50.416666666666664
315,67.5,108.75,22.5,123.75,-15,33.75,30,41.25,45.833333333333336
316,71.25,108.75,22.5,127.5,-15,33.75,33.75,45,47.5
317,82.5,123.75,18.75,127.5,-11.25,33.75,33.75,45,50.416666666666664
318,78.75,127.5,18.75,120,-18.75,30,26.25,37.5,46.666666666666664
319,67.5,120,15,116.25,-26.25,26.25,22.5,33.75,41.666666666666664
320,71.25,112.5,18.75,120,-22.5,26.25,22.5,30,42.083333333333336
321,78.75,116.25,26.25,123.75,-18.75,30,26.25,33.75,46.25
322,82.5,123.75,26.25,123.75,-18.75,30,26.25,37.5,47.916666666666664
323,93.75,131.25,30,135,-7.5,41.25,37.5,48.75,56.666666666666664
324,108.75,135,33.75,146.25,3.75,48.75,48.75,60,65.0
325,105,127.5,30,142.5,0,48.75,48.75,60,62.5
326,105,123.75,26.25,135,-11.25,45,45,56.25,58.333333333333336
327,105,123.75,30,131.25,-11.25,45,45,60,58.75
328,105,127.5,30,131.25,-11.25,48.75,48.75,67.5,60.833333333333336
329,97.5,123.75,30,135,-7.5,45,48.75,63.75,59.583333333333336
330,93.75,123.75,26.25,127.5,-15,41.25,41.25,56.25,55.0
331,93.75,131.25,30,123.75,-15,41.25,45,56.25,56.25
332,93.75,138.75,33.75,123.75,-15,37.5,41.25,56.25,56.666666666666664
333,101.25,150,37.5,123.75,-15,41.25,45,56.25,60.0
334,108.75,157.5,41.25,127.5,-15,41.25,45,60,62.916666666666664
335,116.25,161.25,41.25,131.25,-11.25,45,48.75,63.75,66.25
336,123.75,161.25,41.25,135,-7.5,48.75,56.25,75,70.41666666666667
337,120,146.25,41.25,131.25,-15,45,56.25,75,66.66666666666667
338,120,138.75,33.75,123.75,-22.5,37.5,48.75,71.25,61.25
339,116.25,146.25,33.75,123.75,-26.25,37.5,48.75,71.25,61.25
340,112.5,153.75,37.5,123.75,-26.25,37.5,48.75,71.25,62.083333333333336
341,116.25,153.75,37.5,120,-26.25,37.5,48.75,71.25,62.083333333333336
342,101.25,138.75,33.75,108.75,-37.5,22.5,37.5,60,51.666666666666664
343,93.75,135,30,97.5,-48.75,15,26.25,48.75,44.166666666666664
344,97.5,146.25,30,93.75,-48.75,15,26.25,48.75,45.416666666666664
345,105,161.25,37.5,97.5,-48.75,18.75,30,52.5,50.416666666666664
346,108.75,172.5,45,101.25,-45,18.75,33.75,56.25,54.583333333333336
347,108.75,176.25,45,97.5,-48.75,15,33.75,56.25,53.75
348,116.25,172.5,48.75,105,-45,18.75,33.75,63.75,57.083333333333336
349,116.25,161.25,41.25,97.5,-52.5,11.25,30,60,51.666666666666664
350,108.75,153.75,37.5,90,-60,3.75,22.5,52.5,45.416666666666664
351,105,150,41.25,82.5,-63.75,3.75,22.5,52.5,43.75
352,97.5,142.5,41.25,78.75,-67.5,0,18.75,52.5,40.416666666666664
353,86.25,138.75,45,82.5,-67.5,0,18.75,52.5,39.583333333333336
354,78.75,135,48.75,75,-75,-7.5,11.25,41.25,34.166666666666664
355,75,135,48.75,67.5,-86.25,-15,3.75,33.75,29.166666666666668
356,67.5,138.75,48.75,67.5,-90,-18.75,0,30,27.083333333333332
357,63.75,138.75,56.25,71.25,-86.25,-15,0,30,28.75
358,60,135,56.25,71.25,-86.25,-22.5,-7.5,22.5,25.416666666666668
359,52.5,131.25,56.25,71.25,-86.25,-22.5,-7.5,22.5,24.166666666666668
360,56.25,127.5,60,75,-86.25,-22.5,-3.75,26.25,25.833333333333332
361,52.5,116.25,60,71.25,-86.25,-22.5,-7.5,26.25,23.333333333333332
362,41.25,108.75,56.25,60,-97.5,-33.75,-15,18.75,15.416666666666666
363,30,108.75,60,60,-97.5,-33.75,-15,18.75,14.583333333333334
364,26.25,105,60,56.25,-97.5,-33.75,-15,15,12.916666666666666
365,30,105,56.25,48.75,-105,-37.5,-22.5,11.25,9.583333333333334
366,33.75,112.5,52.5,37.5,-112.5,-45,-26.25,7.5,6.666666666666667
367,22.5,105,45,26.25,-123.75,-56.25,-37.5,-3.75,-2.5
368,3.75,75,41.25,18.75,-131.25,-67.5,-52.5,-22.5,-15.0
369,3.75,75,41.25,15,-135,-71.25,-56.25,-30,-17.5
370,0,93.75,41.25,18.75,-131.25,-71.25,-56.25,-30,-15.0
371,0,97.5,45,18.75,-127.5,-67.5,-52.5,-26.25,-12.5
372,-7.5,82.5,41.25,18.75,-127.5,-67.5,-52.5,-26.25,-15.416666666666666
373,-11.25,71.25,37.5,15,-131.25,-75,-56.25,-30,-20.0
374,-7.5,67.5,30,3.75,-142.5,-78.75,-63.75,-37.5,-25.416666666666668
375,-11.25,63.75,30,3.75,-146.25,-78.75,-63.75,-33.75,-26.25
376,-30,56.25,33.75,0,-142.5,-78.75,-63.75,-37.5,-29.166666666666668
377,-37.5,52.5,30,-7.5,-150,-86.25,-71.25,-41.25,-34.583333333333336
378,-37.5,48.75,26.25,-11.25,-153.75,-90,-75,-45,-37.5
379,-45,48.75,26.25,-18.75,-157.5,-93.75,-78.75,-52.5,-41.25
380,-48.75,52.5,26.25,-22.5,-161.25,-93.75,-82.5,-56.25,-42.916666666666664
381,-45,52.5,26.25,-22.5,-161.25,-97.5,-86.25,-60,-43.75
382,-48.75,52.5,26.25,-26.25,-161.25,-101.25,-86.25,-60,-45.0
383,-48.75,52.5,30,-18.75,-157.5,-93.75,-78.75,-52.5,-40.833333333333336
384,-48.75,41.25,30,-15,-153.75,-93.75,-78.75,-48.75,-40.833333333333336
385,-52.5,22.5,22.5,-26.25,-161.25,-101.25,-82.5,-56.25,-48.333333333333336
386,-52.5,22.5,18.75,-33.75,-168.75,-105,-86.25,-56.25,-51.25
387,-52.5,30,22.5,-33.75,-168.75,-101.25,-82.5,-52.5,-48.75
388,-56.25,26.25,18.75,-41.25,-172.5,-105,-90,-56.25,-52.916666666666664
389,-56.25,22.5,15,-45,-176.25,-112.5,-93.75,-60,-56.25
390,-60,22.5,3.75,-56.25,-183.75,-120,-101.25,-67.5,-62.5
391,-82.5,3.75,-3.75,-67.5,-195,-127.5,-112.5,-78.75,-73.75
392,-93.75,-3.75,-3.75,-75,-202.5,-135,-120,-90,-80.41666666666667
393,-82.5,11.25,3.75,-63.75,-195,-131.25,-112.5,-86.25,-72.91666666666667
394,-75,18.75,7.5,-60,-191.25,-127.5,-108.75,-78.75,-68.33333333333333
395,-67.5,22.5,7.5,-60,-191.25,-127.5,-105,-75,-66.25
396,-71.25,18.75,3.75,-56.25,-191.25,-127.5,-105,-71.25,-66.66666666666667
397,-75,7.5,0,-60,-191.25,-123.75,-105,-71.25,-68.75
398,-75,3.75,-3.75,-67.5,-195,-127.5,-105,-75,-71.66666666666667
399,-71.25,0,-7.5,-71.25,-198.75,-131.25,-108.75,-75,-73.75
400,-71.25,3.75,-3.75,-71.25,-195,-127.5,-108.75,-71.25,-71.66666666666667
401,-67.5,7.5,-3.75,-67.5,-195,-123.75,-105,-71.25,-69.58333333333333
402,-78.75,0,-3.75,-75,-198.75,-127.5,-108.75,-75,-74.16666666666667
403,-90,0,-7.5,-78.75,-202.5,-131.25,-112.5,-78.75,-77.91666666666667
404,-82.5,11.25,-3.75,-78.75,-202.5,-131.25,-112.5,-82.5,-75.83333333333333
405,-82.5,15,3.75,-71.25,-195,-127.5,-112.5,-78.75,-72.08333333333333
406,-86.25,15,0,-75,-198.75,-127.5,-112.5,-82.5,-74.16666666666667
407,-78.75,18.75,0,-71.25,-191.25,-123.75,-108.75,-78.75,-70.41666666666667
408,-67.5,18.75,3.75,-63.75,-183.75,-120,-105,-71.25,-65.41666666666667
409,-67.5,15,-3.75,-63.75,-187.5,-120,-105,-67.5,-66.66666666666667
410,-71.25,7.5,-11.25,-71.25,-195,-123.75,-108.75,-71.25,-71.66666666666667
411,-75,7.5,0,-67.5,-183.75,-116.25,-101.25,-63.75,-66.66666666666667
412,-75,11.25,0,-63.75,-180,-112.5,-97.5,-60,-64.16666666666667
413,-78.75,15,-3.75,-63.75,-180,-108.75,-97.5,-60,-64.16666666666667
414,-78.75,11.25,-3.75,-71.25,-183.75,-112.5,-101.25,-67.5,-67.5
415,-86.25,11.25,-7.5,-78.75,-191.25,-120,-108.75,-78.75,-73.33333333333333
416,-90,11.25,-3.75,-75,-187.5,-120,-108.75,-78.75,-72.5
417,-86.25,18.75,-3.75,-71.25,-183.75,-112.5,-105,-75,-68.75
418,-75,26.25,-7.5,-75,-191.25,-116.25,-108.75,-78.75,-69.58333333333333
419,-71.25,26.25,0,-63.75,-183.75,-112.5,-101.25,-71.25,-64.16666666666667
420,-67.5,22.5,7.5,-48.75,-168.75,-101.25,-90,-60,-56.25
421,-67.5,15,0,-56.25,-172.5,-105,-90,-60,-59.583333333333336
422,-67.5,11.25,-7.5,-60,-176.25,-108.75,-93.75,-60,-62.5
423,-67.5,15,-7.5,-63.75,-180,-108.75,-93.75,-60,-62.916666666666664
424,-63.75,22.5,-7.5,-63.75,-176.25,-105,-93.75,-60,-60.833333333333336
425,-75,22.5,-7.5,-63.75,-176.25,-105,-93.75,-60,-62.083333333333336
426,-82.5,15,-3.75,-67.5,-176.25,-108.75,-93.75,-63.75,-64.58333333333333
427,-90,15,-7.5,-71.25,-183.75,-112.5,-101.25,-71.25,-69.16666666666667
428,-75,26.25,-11.25,-75,-187.5,-116.25,-101.25,-75,-68.33333333333333
429,-60,37.5,-11.25,-71.25,-180,-108.75,-97.5,-67.5,-62.083333333333336
430,-75,33.75,-3.75,-63.75,-176.25,-108.75,-97.5,-67.5,-62.083333333333336
431,-75,37.5,3.75,-56.25,-168.75,-101.25,-90,-63.75,-57.083333333333336
432,-60,45,7.5,-48.75,-161.25,-93.75,-82.5,-52.5,-49.583333333333336
433,-60,30,3.75,-48.75,-165,-97.5,-86.25,-56.25,-53.333333333333336
434,-67.5,7.5,-3.75,-56.25,-172.5,-105,-93.75,-63.75,-61.666666666666664
435,-67.5,7.5,-7.5,-63.75,-180,-105,-93.75,-63.75,-63.75
436,-71.25,18.75,-7.5,-60,-176.25,-101.25,-90,-56.25,-60.416666666666664
437,-71.25,22.5,-7.5,-56.25,-168.75,-97.5,-82.5,-52.5,-57.083333333333336
438,-78.75,18.75,-11.25,-63.75,-172.5,-101.25,-90,-63.75,-62.5
439,-93.75,15,-11.25,-71.25,-180,-105,-97.5,-71.25,-68.33333333333333
440,-90,22.5,-7.5,-67.5,-180,-105,-93.75,-71.25,-65.83333333333333
441,-82.5,26.25,-3.75,-63.75,-176.25,-101.25,-93.75,-67.5,-62.5
442,-78.75,30,-3.75,-63.75,-172.5,-101.25,-93.75,-67.5,-61.25
443,-67.5,37.5,-3.75,-60,-172.5,-101.25,-90,-63.75,-57.916666666666664
444,-60,41.25,-3.75,-52.5,-165,-93.75,-82.5,-56.25,-52.5
445,-60,33.75,-3.75,-52.5,-165,-93.75,-78.75,-48.75,-52.083333333333336
446,-60,26.25,-7.5,-60,-172.5,-97.5,-86.25,-52.5,-56.666666666666664
447,-63.75,30,-11.25,-63.75,-176.25,-97.5,-86.25,-56.25,-58.333333333333336
448,-63.75,37.5,-11.25,-63.75,-176.25,-101.25,-90,-56.25,-58.333333333333336
449,-71.25,26.25,-11.25,-63.75,-176.25,-101.25,-90,-56.25,-60.416666666666664
450,-75,15,-15,-67.5,-180,-105,-93.75,-63.75,-65.0
451,-78.75,18.75,-15,-75,-180,-105,-93.75,-67.5,-66.25
452,-90,18.75,-15,-75,-183.75,-108.75,-97.5,-71.25,-69.16666666666667
453,-78.75,30,-11.25,-71.25,-180,-108.75,-97.5,-67.5,-65.0
454,-71.25,41.25,-11.25,-71.25,-176.25,-101.25,-90,-63.75,-60.416666666666664
455,-63.75,45,-7.5,-63.75,-172.5,-97.5,-86.25,-56.25,-55.833333333333336
456,-52.5,41.25,0,-56.25,-165,-90,-78.75,-48.75,-50.0
457,-48.75,33.75,-7.5,-56.25,-168.75,-93.75,-78.75,-48.75,-52.083333333333336
458,-56.25,26.25,-15,-67.5,-176.25,-101.25,-82.5,-52.5,-58.333333333333336
459,-56.25,26.25,-15,-71.25,-180,-101.25,-86.25,-52.5,-59.583333333333336
460,-60,22.5,-15,-71.25,-180,-101.25,-86.25,-52.5,-60.416666666666664
461,-71.25,26.25,-11.25,-71.25,-176.25,-101.25,-82.5,-52.5,-60.0
462,-82.5,22.5,-18.75,-78.75,-183.75,-105,-90,-60,-66.25
463,-86.25,15,-22.5,-86.25,-191.25,-116.25,-97.5,-71.25,-72.91666666666667
464,-86.25,22.5,-22.5,-90,-191.25,-116.25,-97.5,-71.25,-72.5
465,-78.75,37.5,-18.75,-86.25,-187.5,-112.5,-93.75,-67.5,-67.5
466,-78.75,30,-15,-86.25,-187.5,-116.25,-97.5,-67.5,-68.75
467,-82.5,22.5,-15,-82.5,-183.75,-112.5,-93.75,-67.5,-68.33333333333333
468,-63.75,37.5,-15,-75,-180,-105,-86.25,-56.25,-60.416666666666664
469,-45,45,-15,-71.25,-176.25,-105,-78.75,-45,-54.583333333333336
470,-52.5,22.5,-26.25,-82.5,-187.5,-112.5,-93.75,-60,-65.83333333333333
471,-60,15,-26.25,-86.25,-187.5,-116.25,-93.75,-60,-68.33333333333333
472,-63.75,22.5,-30,-90,-191.25,-116.25,-97.5,-63.75,-70.0
473,-67.5,22.5,-26.25,-86.25,-191.25,-116.25,-97.5,-63.75,-69.58333333333333
474,-71.25,18.75,-33.75,-97.5,-202.5,-123.75,-105,-71.25,-76.25
475,-78.75,22.5,-33.75,-101.25,-202.5,-127.5,-105,-71.25,-77.5
476,-86.25,22.5,-33.75,-105,-202.5,-127.5,-108.75,-78.75,-80.0
477,-82.5,30,-33.75,-101.25,-198.75,-123.75,-108.75,-78.75,-77.5
478,-82.5,33.75,-30,-97.5,-198.75,-123.75,-105,-75,-75.41666666666667
479,-78.75,33.75,-26.25,-93.75,-191.25,-116.25,-97.5,-67.5,-70.83333333333333
480,-67.5,30,-22.5,-86.25,-183.75,-108.75,-86.25,-60,-65.0
481,-63.75,18.75,-22.5,-86.25,-183.75,-108.75,-86.25,-56.25,-65.41666666666667
482,-78.75,0,-30,-97.5,-191.25,-116.25,-93.75,-63.75,-74.58333333333333
483,-78.75,-3.75,-33.75,-105,-198.75,-120,-97.5,-63.75,-77.91666666666667
484,-63.75,0,-37.5,-105,-198.75,-120,-97.5,-63.75,-76.25
485,-63.75,3.75,-41.25,-108.75,-202.5,-123.75,-97.5,-67.5,-77.91666666666667
486,-78.75,7.5,-45,-116.25,-210,-127.5,-105,-71.25,-82.91666666666667
487,-82.5,11.25,-45,-120,-213.75,-131.25,-108.75,-75,-85.0
488,-93.75,11.25,-48.75,-131.25,-217.5,-135,-112.5,-82.5,-90.0
489,-93.75,18.75,-45,-127.5,-217.5,-138.75,-116.25,-86.25,-89.58333333333333
490,-82.5,18.75,-48.75,-123.75,-217.5,-142.5,-120,-90,-89.58333333333333
491,-82.5,22.5,-45,-120,-213.75,-135,-112.5,-82.5,-85.41666666666667
492,-75,22.5,-41.25,-116.25,-206.25,-131.25,-108.75,-75,-81.25
493,-67.5,18.75,-45,-108.75,-202.5,-127.5,-105,-71.25,-78.75
494,-63.75,15,-52.5,-116.25,-210,-131.25,-105,-71.25,-81.66666666666667
495,-75,7.5,-48.75,-120,-210,-131.25,-101.25,-71.25,-83.33333333333333
496,-75,3.75,-48.75,-123.75,-213.75,-135,-105,-71.25,-85.41666666666667
497,-78.75,3.75,-52.5,-127.5,-217.5,-135,-112.5,-75,-88.33333333333333
498,-75,11.25,-56.25,-135,-221.25,-138.75,-112.5,-82.5,-90.0
499,-71.25,18.75,-60,-142.5,-225,-146.25,-116.25,-86.25,-92.08333333333333
500,-75,22.5,-56.25,-142.5,-225,-146.25,-120,-86.25,-92.08333333333333
501,-82.5,26.25,-45,-131.25,-217.5,-138.75,-116.25,-82.5,-87.5
502,-75,30,-45,-127.5,-213.75,-138.75,-116.25,-82.5,-85.41666666666667
503,-82.5,18.75,-48.75,-131.25,-217.5,-142.5,-116.25,-82.5,-89.16666666666667
504,-82.5,7.5,-48.75,-127.5,-217.5,-142.5,-116.25,-82.5,-90.0
505,-78.75,0,-52.5,-127.5,-217.5,-142.5,-112.5,-78.75,-90.0
506,-86.25,-7.5,-56.25,-135,-225,-146.25,-120,-82.5,-95.41666666666667
507,-82.5,-3.75,-56.25,-138.75,-228.75,-146.25,-120,-82.5,-95.41666666666667
508,-75,0,-56.25,-138.75,-225,-142.5,-116.25,-78.75,-92.5
509,-78.75,-3.75,-52.5,-135,-221.25,-138.75,-112.5,-78.75,-91.25
510,-86.25,-7.5,-56.25,-138.75,-225,-142.5,-116.25,-78.75,-94.58333333333333
511,-97.5,-15,-56.25,-150,-232.5,-150,-120,-86.25,-100.83333333333333
512,-97.5,-3.75,-56.25,-150,-232.5,-150,-123.75,-93.75,-100.83333333333333
513,-90,15,-56.25,-150,-232.5,-150,-123.75,-93.75,-97.91666666666667
514,-90,11.25,-56.25,-146.25,-228.75,-150,-123.75,-93.75,-97.5
515,-82.5,11.25,-56.25,-142.5,-228.75,-150,-123.75,-93.75,-96.25
516,-67.5,18.75,-48.75,-131.25,-221.25,-142.5,-116.25,-78.75,-87.5
517,-60,11.25,-52.5,-131.25,-221.25,-142.5,-116.25,-78.75,-87.91666666666667
518,-71.25,0,-63.75,-142.5,-232.5,-153.75,-123.75,-86.25,-97.08333333333333
519,-82.5,-3.75,-63.75,-146.25,-232.5,-150,-123.75,-86.25,-98.75
520,-82.5,-3.75,-60,-142.5,-228.75,-150,-123.75,-82.5,-97.08333333333333
521,-82.5,-3.75,-60,-146.25,-228.75,-150,-123.75,-82.5,-97.5
522,-86.25,-7.5,-60,-146.25,-232.5,-150,-123.75,-86.25,-99.16666666666667
523,-93.75,-7.5,-60,-153.75,-236.25,-153.75,-131.25,-90,-102.91666666666667
524,-97.5,0,-60,-157.5,-236.25,-157.5,-131.25,-93.75,-103.75
525,-86.25,11.25,-56.25,-150,-228.75,-150,-127.5,-86.25,-97.08333333333333
526,-82.5,15,-52.5,-142.5,-225,-146.25,-123.75,-86.25,-93.75
527,-82.5,11.25,-52.5,-142.5,-225,-146.25,-123.75,-86.25,-94.16666666666667
528,-67.5,11.25,-48.75,-135,-217.5,-138.75,-116.25,-78.75,-87.91666666666667
529,-63.75,7.5,-48.75,-131.25,-217.5,-138.75,-112.5,-75,-86.66666666666667
530,-75,-7.5,-60,-142.5,-228.75,-150,-123.75,-82.5,-96.66666666666667
531,-78.75,-7.5,-60,-150,-232.5,-150,-127.5,-86.25,-99.16666666666667
532,-75,0,-60,-146.25,-228.75,-146.25,-123.75,-82.5,-95.83333333333333
533,-71.25,0,-56.25,-142.5,-225,-142.5,-120,-78.75,-92.91666666666667
534,-86.25,-11.25,-60,-150,-232.5,-150,-123.75,-86.25,-100.0
535,-101.25,-11.25,-63.75,-157.5,-240,-157.5,-131.25,-93.75,-106.25
536,-90,7.5,-60,-157.5,-240,-157.5,-131.25,-93.75,-102.5
537,-86.25,18.75,-52.5,-150,-232.5,-150,-127.5,-90,-96.66666666666667
538,-90,11.25,-52.5,-146.25,-232.5,-153.75,-131.25,-90,-98.33333333333333
539,-78.75,15,-56.25,-150,-236.25,-153.75,-131.25,-93.75,-98.33333333333333
540,-67.5,18.75,-48.75,-138.75,-228.75,-146.25,-120,-82.5,-90.41666666666667
541,-67.5,11.25,-45,-135,-225,-142.5,-116.25,-75,-88.33333333333333
542,-78.75,0,-48.75,-138.75,-225,-146.25,-120,-78.75,-92.91666666666667
543,-82.5,-3.75,-56.25,-146.25,-228.75,-150,-123.75,-82.5,-97.08333333333333
544,-82.5,-3.75,-56.25,-146.25,-232.5,-150,-123.75,-82.5,-97.5
545,-75,0,-56.25,-146.25,-232.5,-146.25,-123.75,-82.5,-95.83333333333333
546,-82.5,-7.5,-56.25,-150,-232.5,-150,-123.75,-86.25,-98.75
547,-90,-11.25,-60,-157.5,-236.25,-153.75,-127.5,-90,-102.91666666666667
548,-97.5,-7.5,-60,-157.5,-236.25,-153.75,-131.25,-93.75,-104.16666666666667
549,-93.75,0,-56.25,-153.75,-236.25,-153.75,-127.5,-93.75,-101.66666666666667
550,-93.75,0,-56.25,-153.75,-236.25,-153.75,-131.25,-97.5,-102.5
551,-82.5,7.5,-56.25,-150,-232.5,-153.75,-131.25,-93.75,-99.16666666666667
552,-71.25,11.25,-52.5,-142.5,-225,-146.25,-120,-82.5,-92.08333333333333
553,-71.25,7.5,-56.25,-142.5,-225,-142.5,-120,-78.75,-92.08333333333333
554,-67.5,0,-56.25,-146.25,-225,-146.25,-120,-78.75,-93.33333333333333
555,-71.25,-15,-60,-153.75,-232.5,-150,-127.5,-82.5,-99.16666666666667
556,-82.5,-18.75,-56.25,-146.25,-225,-146.25,-123.75,-78.75,-97.5
557,-82.5,-7.5,-52.5,-142.5,-221.25,-142.5,-120,-78.75,-94.16666666666667
558,-86.25,-7.5,-60,-153.75,-228.75,-150,-123.75,-86.25,-99.58333333333333
559,-90,-7.5,-63.75,-161.25,-236.25,-157.5,-135,-97.5,-105.41666666666667
560,-93.75,0,-60,-161.25,-236.25,-157.5,-135,-101.25,-105.0
561,-93.75,3.75,-56.25,-157.5,-232.5,-153.75,-135,-97.5,-102.5
562,-93.75,0,-56.25,-153.75,-232.5,-153.75,-131.25,-97.5,-102.08333333333333
563,-86.25,3.75,-52.5,-150,-228.75,-150,-127.5,-90,-97.91666666666667
564,-78.75,7.5,-52.5,-142.5,-221.25,-142.5,-120,-82.5,-92.5
565,-75,0,-56.25,-146.25,-225,-146.25,-123.75,-82.5,-95.0
566,-78.75,-11.25,-60,-150,-228.75,-150,-123.75,-82.5,-98.33333333333333
567,-78.75,-3.75,-60,-150,-228.75,-146.25,-123.75,-82.5,-97.08333333333333
568,-75,0,-60,-150,-228.75,-146.25,-123.75,-82.5,-96.25
569,-82.5,-15,-63.75,-153.75,-228.75,-150,-127.5,-86.25,-100.83333333333333
570,-86.25,-18.75,-63.75,-161.25,-232.5,-157.5,-131.25,-90,-104.58333333333333
571,-90,-11.25,-63.75,-161.25,-232.5,-153.75,-131.25,-90,-103.75
572,-90,-7.5,-63.75,-161.25,-236.25,-157.5,-135,-97.5,-105.41666666666667
573,-82.5,3.75,-56.25,-153.75,-228.75,-150,-127.5,-90,-98.33333333333333
574,-90,7.5,-56.25,-153.75,-228.75,-150,-127.5,-90,-98.75
575,-97.5,3.75,-56.25,-150,-228.75,-150,-123.75,-90,-99.16666666666667
576,-75,7.5,-52.5,-138.75,-217.5,-142.5,-116.25,-82.5,-90.83333333333333
577,-67.5,3.75,-52.5,-135,-213.75,-142.5,-116.25,-82.5,-89.58333333333333
578,-67.5,15,-52.5,-135,-213.75,-135,-112.5,-71.25,-85.83333333333333
579,-71.25,30,-48.75,-131.25,-210,-127.5,-105,-63.75,-80.83333333333333
580,-71.25,30,-48.75,-131.25,-210,-127.5,-105,-67.5,-81.25
581,-71.25,26.25,-45,-127.5,-206.25,-127.5,-105,-67.5,-80.41666666666667
582,-78.75,22.5,-37.5,-127.5,-206.25,-127.5,-108.75,-71.25,-81.66666666666667
583,-97.5,22.5,-33.75,-131.25,-206.25,-131.25,-112.5,-75,-85.0
584,-101.25,37.5,-26.25,-131.25,-206.25,-131.25,-112.5,-75,-82.91666666666667
585,-82.5,56.25,-22.5,-127.5,-206.25,-127.5,-108.75,-71.25,-76.66666666666667
586,-82.5,56.25,-18.75,-123.75,-202.5,-127.5,-108.75,-75,-75.83333333333333
587,-90,52.5,-15,-120,-198.75,-127.5,-108.75,-75,-75.83333333333333
588,-78.75,52.5,-7.5,-108.75,-191.25,-120,-97.5,-63.75,-68.33333333333333
589,-63.75,52.5,0,-97.5,-183.75,-108.75,-86.25,-52.5,-60.0
590,-60,48.75,3.75,-93.75,-180,-108.75,-86.25,-52.5,-58.75
591,-60,48.75,3.75,-97.5,-180,-105,-86.25,-52.5,-58.75
592,-56.25,52.5,0,-97.5,-180,-108.75,-90,-56.25,-59.583333333333336
593,-56.25,52.5,-3.75,-101.25,-183.75,-108.75,-93.75,-60,-61.666666666666664
594,-56.25,56.25,0,-101.25,-183.75,-112.5,-93.75,-60,-61.25
595,-63.75,63.75,7.5,-101.25,-180,-108.75,-90,-60,-59.166666666666664
596,-71.25,71.25,11.25,-93.75,-172.5,-105,-86.25,-60,-56.25
597,-71.25,82.5,18.75,-90,-168.75,-105,-86.25,-60,-53.333333333333336
598,-67.5,97.5,18.75,-86.25,-168.75,-101.25,-82.5,-56.25,-49.583333333333336
599,-63.75,112.5,15,-82.5,-161.25,-97.5,-75,-48.75,-44.583333333333336
600,-56.25,108.75,7.5,-78.75,-153.75,-86.25,-63.75,-33.75,-39.583333333333336
601,-45,101.25,-3.75,-75,-146.25,-75,-52.5,-18.75,-35.0
602,-37.5,97.5,-26.25,-86.25,-153.75,-82.5,-56.25,-22.5,-40.833333333333336
603,-18.75,97.5,-41.25,-101.25,-165,-86.25,-63.75,-22.5,-44.583333333333336
604,-7.5,97.5,-52.5,-108.75,-168.75,-90,-63.75,-26.25,-46.666666666666664
605,-18.75,90,-60,-116.25,-176.25,-97.5,-75,-33.75,-54.166666666666664
606,-33.75,78.75,-63.75,-120,-180,-101.25,-78.75,-41.25,-60.0
607,-37.5,78.75,-67.5,-123.75,-183.75,-108.75,-86.25,-48.75,-64.16666666666667
608,-37.5,86.25,-71.25,-135,-191.25,-112.5,-90,-56.25,-67.5
609,-30,82.5,-75,-138.75,-195,-112.5,-90,-56.25,-68.33333333333333
610,-18.75,71.25,-78.75,-142.5,-195,-116.25,-93.75,-56.25,-70.0
611,-18.75,71.25,-78.75,-142.5,-198.75,-120,-97.5,-56.25,-71.25
612,-18.75,86.25,-75,-138.75,-198.75,-120,-93.75,-52.5,-67.91666666666667
613,-18.75,75,-78.75,-138.75,-198.75,-120,-93.75,-52.5,-69.58333333333333
614,-22.5,37.5,-78.75,-142.5,-202.5,-123.75,-97.5,-56.25,-76.25
615,-22.5,30,-71.25,-138.75,-198.75,-116.25,-93.75,-52.5,-73.75
616,-18.75,52.5,-60,-131.25,-191.25,-108.75,-86.25,-48.75,-65.83333333333333
617,-22.5,60,-56.25,-127.5,-187.5,-108.75,-86.25,-45,-63.75
618,-37.5,48.75,-60,-131.25,-195,-112.5,-90,-52.5,-70.0
619,-60,45,-63.75,-142.5,-202.5,-123.75,-97.5,-60,-78.33333333333333
620,-60,48.75,-60,-142.5,-202.5,-123.75,-101.25,-63.75,-78.33333333333333
621,-52.5,41.25,-63.75,-150,-210,-131.25,-108.75,-75,-83.33333333333333
622,-48.75,33.75,-67.5,-153.75,-217.5,-138.75,-116.25,-78.75,-87.5
623,-52.5,26.25,-67.5,-153.75,-217.5,-138.75,-116.25,-78.75,-88.75
624,-48.75,30,-63.75,-146.25,-210,-135,-108.75,-71.25,-83.75
625,-48.75,26.25,-60,-138.75,-206.25,-131.25,-105,-67.5,-81.25
626,-60,7.5,-67.5,-153.75,-217.5,-146.25,-116.25,-78.75,-92.5
627,-71.25,-7.5,-71.25,-165,-225,-150,-120,-82.5,-99.16666666666667
628,-71.25,-11.25,-71.25,-165,-228.75,-153.75,-123.75,-86.25,-101.25
629,-86.25,-18.75,-75,-172.5,-232.5,-157.5,-127.5,-90,-106.66666666666667
630,-97.5,-22.5,-78.75,-180,-243.75,-165,-138.75,-97.5,-113.75
631,-93.75,-7.5,-71.25,-176.25,-240,-161.25,-135,-97.5,-109.16666666666667
632,-97.5,-11.25,-75,-180,-243.75,-168.75,-142.5,-108.75,-114.16666666666667
633,-101.25,-15,-75,-183.75,-243.75,-168.75,-146.25,-112.5,-116.25
634,-97.5,-7.5,-75,-176.25,-240,-165,-142.5,-112.5,-112.91666666666667
635,-90,0,-71.25,-172.5,-236.25,-161.25,-138.75,-105,-108.33333333333333
636,-82.5,3.75,-67.5,-161.25,-225,-153.75,-131.25,-97.5,-101.66666666666667
637,-75,-3.75,-67.5,-157.5,-221.25,-150,-127.5,-90,-99.16666666666667
638,-75,-22.5,-75,-165,-232.5,-161.25,-135,-93.75,-106.66666666666667
639,-75,-26.25,-71.25,-168.75,-232.5,-157.5,-131.25,-93.75,-106.25
640,-75,-18.75,-71.25,-168.75,-228.75,-153.75,-127.5,-93.75,-104.16666666666667
641,-78.75,-15,-71.25,-168.75,-228.75,-153.75,-127.5,-90,-103.75
642,-90,-15,-71.25,-168.75,-228.75,-157.5,-135,-97.5,-107.08333333333333
643,-101.25,-7.5,-71.25,-176.25,-232.5,-165,-138.75,-101.25,-110.41666666666667
644,-105,-3.75,-75,-180,-236.25,-165,-142.5,-108.75,-112.91666666666667
645,-93.75,-3.75,-78.75,-180,-240,-168.75,-142.5,-108.75,-112.91666666666667
646,-86.25,-15,-75,-183.75,-240,-168.75,-138.75,-108.75,-112.91666666666667
647,-82.5,-11.25,-71.25,-176.25,-236.25,-165,-135,-105,-109.16666666666667
648,-75,0,-67.5,-161.25,-228.75,-157.5,-131.25,-101.25,-102.5
649,-67.5,-15,-63.75,-150,-225,-161.25,-135,-101.25,-102.08333333333333
650,-63.75,-48.75,-52.5,-142.5,-228.75,-168.75,-146.25,-112.5,-107.08333333333333
651,-60,-71.25,-18.75,-112.5,-221.25,-180,-161.25,-135,-106.66666666666667
652,-56.25,-97.5,33.75,-63.75,-213.75,-191.25,-187.5,-165,-104.58333333333333
653,-45,-135,90,-15,-206.25,-213.75,-217.5,-195,-104.16666666666667
654,-41.25,-153.75,146.25,30,-198.75,-228.75,-236.25,-221.25,-100.41666666666667
655,-37.5,-142.5,191.25,75,-187.5,-232.5,-247.5,-236.25,-90.83333333333333
656,-22.5,-108.75,240,142.5,-142.5,-202.5,-225,-217.5,-59.583333333333336
657,7.5,-45,288.75,228.75,-67.5,-142.5,-172.5,-172.5,-8.333333333333334
658,48.75,30,330,318.75,11.25,-78.75,-116.25,-120,47.083333333333336
659,97.5,101.25,356.25,401.25,93.75,0,-45,-60,105.0
660,142.5,168.75,382.5,472.5,172.5,82.5,37.5,18.75,164.16666666666666
661,187.5,243.75,401.25,532.5,247.5,168.75,123.75,101.25,222.91666666666666
662,236.25,322.5,401.25,592.5,330,258.75,221.25,191.25,283.75
663,300,427.5,378.75,637.5,420,367.5,330,296.25,350.8333333333333
664,352.5,547.5,337.5,656.25,506.25,483.75,453.75,416.25,417.0833333333333
665,382.5,686.25,262.5,637.5,581.25,603.75,585,547.5,476.25
666,412.5,832.5,172.5,607.5,660,727.5,720,678.75,534.5833333333334
667,431.25,1016.25,142.5,618.75,761.25,873.75,870,821.25,615.0
668,427.5,1233.75,86.25,570,832.5,1012.5,1031.25,990,687.0833333333334
669,431.25,1473.75,-48.75,442.5,866.25,1151.25,1215,1192.5,747.0833333333334
670,461.25,1676.25,-202.5,300,896.25,1286.25,1391.25,1380,798.75
671,465,1781.25,-363.75,120,896.25,1376.25,1515,1507.5,810.8333333333334
672,438.75,1845,-502.5,-37.5,907.5,1470,1620,1612.5,817.0833333333334
673,371.25,1860,-551.25,-93.75,948.75,1545,1687.5,1661.25,825.4166666666666
674,270,1792.5,-528.75,-82.5,997.5,1582.5,1695,1635,817.9166666666666
675,180,1706.25,-543.75,-127.5,1008.75,1575,1661.25,1571.25,781.25
676,105,1620,-626.25,-270,922.5,1496.25,1571.25,1481.25,700.0
677,22.5,1462.5,-675,-416.25,750,1297.5,1372.5,1305,568.75
678,-78.75,1222.5,-656.25,-532.5,510,1001.25,1083.75,1038.75,398.75
679,-157.5,986.25,-645,-678.75,217.5,667.5,780,780,216.66666666666666
680,-217.5,772.5,-671.25,-858.75,-112.5,322.5,476.25,536.25,27.5
681,-262.5,585,-682.5,-982.5,-367.5,48.75,228.75,333.75,-122.08333333333333
682,-281.25,435,-660,-1001.25,-472.5,-97.5,71.25,187.5,-202.08333333333334
683,-273.75,303.75,-607.5,-918.75,-461.25,-150,-18.75,75,-227.91666666666666
684,-258.75,198.75,-562.5,-806.25,-412.5,-153.75,-63.75,0,-228.75
685,-228.75,157.5,-528.75,-693.75,-345,-127.5,-60,-11.25,-204.16666666666666
686,-206.25,146.25,-491.25,-603.75,-285,-86.25,-33.75,0,-173.33333333333334
687,-198.75,123.75,-450,-543.75,-270,-75,-30,0,-160.41666666666666
688,-187.5,105,-405,-491.25,-270,-86.25,-33.75,-3.75,-152.5
689,-165,108.75,-352.5,-420,-251.25,-82.5,-30,0,-132.5
690,-131.25,138.75,-300,-345,-213.75,-60,-18.75,11.25,-102.08333333333333
691,-112.5,153.75,-262.5,-281.25,-180,-45,-7.5,15,-80.0
692,-105,161.25,-217.5,-228.75,-150,-30,0,18.75,-61.25
693,-90,168.75,-172.5,-172.5,-120,-15,7.5,26.25,-40.833333333333336
694,-82.5,165,-131.25,-123.75,-93.75,-3.75,11.25,18.75,-26.666666666666668
695,-78.75,153.75,-93.75,-90,-78.75,0,11.25,18.75,-17.5
696,-63.75,142.5,-67.5,-71.25,-71.25,0,11.25,18.75,-11.25
697,-45,127.5,-56.25,-60,-71.25,-3.75,7.5,15,-9.583333333333334
698,-45,105,-56.25,-60,-78.75,-15,-3.75,7.5,-16.25
699,-52.5,90,-48.75,-60,-82.5,-22.5,-11.25,-3.75,-21.25
700,-48.75,90,-41.25,-52.5,-86.25,-26.25,-15,-7.5,-20.833333333333332
701,-52.5,78.75,-41.25,-56.25,-93.75,-37.5,-26.25,-18.75,-27.5
702,-60,63.75,-41.25,-60,-105,-48.75,-41.25,-26.25,-35.416666666666664
703,-63.75,63.75,-33.75,-63.75,-108.75,-56.25,-45,-33.75,-37.916666666666664
704,-56.25,75,-37.5,-63.75,-116.25,-60,-56.25,-41.25,-39.583333333333336
705,-63.75,75,-30,-60,-116.25,-63.75,-60,-45,-40.416666666666664
706,-71.25,63.75,-33.75,-63.75,-123.75,-75,-67.5,-56.25,-47.5
707,-67.5,60,-30,-56.25,-120,-75,-71.25,-56.25,-46.25
708,-56.25,52.5,-26.25,-48.75,-116.25,-71.25,-67.5,-52.5,-42.916666666666664
709,-41.25,48.75,-22.5,-37.5,-108.75,-67.5,-60,-45,-37.083333333333336
710,-26.25,56.25,-18.75,-37.5,-108.75,-67.5,-60,-41.25,-33.75
711,-30,56.25,-22.5,-41.25,-116.25,-71.25,-60,-41.25,-36.25
712,-33.75,52.5,-18.75,-37.5,-116.25,-67.5,-60,-41.25,-35.833333333333336
713,-41.25,41.25,-18.75,-37.5,-116.25,-71.25,-63.75,-41.25,-38.75
714,-37.5,37.5,-22.5,-41.25,-120,-75,-67.5,-48.75,-41.666666666666664
715,-45,37.5,-26.25,-48.75,-127.5,-82.5,-75,-56.25,-47.083333333333336
716,-56.25,41.25,-18.75,-45,-127.5,-78.75,-78.75,-60,-47.083333333333336
717,-45,56.25,-15,-37.5,-120,-75,-71.25,-52.5,-40.0
718,-37.5,71.25,-15,-33.75,-116.25,-75,-67.5,-48.75,-35.833333333333336
719,-33.75,75,-15,-33.75,-116.25,-75,-67.5,-52.5,-35.416666666666664
720,-33.75,67.5,-3.75,-18.75,-105,-63.75,-60,-45,-29.166666666666668
721,-26.25,56.25,-3.75,-11.25,-97.5,-60,-52.5,-33.75,-25.416666666666668
722,-22.5,45,-7.5,-11.25,-101.25,-56.25,-48.75,-26.25,-25.416666666666668
723,-22.5,41.25,-11.25,-18.75,-105,-60,-52.5,-33.75,-29.166666666666668
724,-18.75,45,-7.5,-15,-101.25,-56.25,-56.25,-33.75,-27.083333333333332
725,-26.25,45,-3.75,-7.5,-93.75,-52.5,-48.75,-26.25,-23.75
726,-37.5,41.25,-7.5,-11.25,-101.25,-56.25,-52.5,-30,-28.333333333333332
727,-33.75,41.25,-11.25,-15,-101.25,-60,-56.25,-37.5,-30.416666666666668
728,-33.75,41.25,-11.25,-18.75,-101.25,-60,-56.25,-37.5,-30.833333333333332
729,-33.75,52.5,-3.75,-7.5,-93.75,-52.5,-48.75,-33.75,-24.583333333333332
730,-22.5,67.5,0,-3.75,-86.25,-48.75,-45,-26.25,-18.333333333333332
731,-18.75,71.25,-3.75,-3.75,-90,-52.5,-48.75,-30,-19.583333333333332
732,-7.5,75,0,3.75,-82.5,-45,-41.25,-22.5,-13.333333333333334
733,0,75,3.75,18.75,-75,-33.75,-30,-11.25,-5.833333333333333
734,0,63.75,0,18.75,-75,-33.75,-33.75,-11.25,-7.916666666666667
735,-7.5,56.25,0,15,-75,-37.5,-33.75,-11.25,-10.416666666666666
736,-3.75,63.75,0,18.75,-75,-33.75,-30,-7.5,-7.5
737,0,71.25,0,18.75,-71.25,-30,-30,-7.5,-5.416666666666667
738,-3.75,71.25,0,18.75,-67.5,-26.25,-26.25,-3.75,-4.166666666666667
739,-3.75,71.25,0,18.75,-71.25,-26.25,-30,-7.5,-5.416666666666667
740,-15,71.25,-3.75,15,-75,-33.75,-37.5,-18.75,-10.833333333333334
741,-15,82.5,0,22.5,-67.5,-26.25,-30,-18.75,-5.833333333333333
742,3.75,93.75,3.75,30,-63.75,-22.5,-26.25,-15,0.4166666666666667
743,7.5,90,3.75,33.75,-56.25,-18.75,-22.5,-11.25,2.9166666666666665
744,11.25,86.25,7.5,41.25,-52.5,-15,-18.75,-3.75,6.25
745,18.75,86.25,7.5,52.5,-45,-11.25,-11.25,3.75,11.25
746,18.75,82.5,11.25,56.25,-41.25,-3.75,-3.75,7.5,14.166666666666666
747,22.5,78.75,7.5,52.5,-41.25,0,-3.75,11.25,14.166666666666666
748,22.5,78.75,3.75,52.5,-41.25,3.75,0,15,15.0
749,22.5,82.5,3.75,52.5,-41.25,0,-3.75,11.25,14.166666666666666
750,26.25,90,7.5,56.25,-41.25,0,-3.75,11.25,16.25
751,22.5,90,3.75,56.25,-37.5,0,-7.5,7.5,15.0
752,18.75,86.25,0,48.75,-41.25,-3.75,-15,-3.75,10.0
753,18.75,93.75,7.5,56.25,-37.5,0,-7.5,0,14.583333333333334
754,26.25,101.25,7.5,63.75,-30,3.75,-3.75,3.75,19.166666666666668
755,26.25,108.75,11.25,75,-18.75,15,7.5,11.25,26.25
756,37.5,116.25,15,82.5,-15,22.5,11.25,22.5,32.5
757,52.5,112.5,11.25,90,-11.25,22.5,15,30,35.833333333333336
758,48.75,97.5,3.75,86.25,-11.25,22.5,15,26.25,32.083333333333336
759,48.75,97.5,7.5,86.25,-7.5,26.25,22.5,30,34.583333333333336
760,52.5,101.25,11.25,90,-3.75,30,26.25,37.5,38.333333333333336
761,56.25,108.75,11.25,93.75,-3.75,33.75,26.25,37.5,40.416666666666664
762,52.5,112.5,7.5,90,-3.75,33.75,26.25,37.5,39.583333333333336
763,37.5,105,7.5,86.25,-7.5,30,22.5,33.75,35.0
764,41.25,108.75,7.5,86.25,-7.5,30,22.5,33.75,35.833333333333336
765,48.75,120,11.25,93.75,0,37.5,26.25,37.5,41.666666666666664
766,60,131.25,18.75,101.25,7.5,41.25,30,37.5,47.5
767,63.75,127.5,18.75,105,7.5,41.25,33.75,41.25,48.75
768,63.75,131.25,22.5,112.5,18.75,48.75,41.25,48.75,54.166666666666664
769,75,127.5,26.25,123.75,26.25,56.25,52.5,60,60.833333333333336
770,86.25,120,22.5,120,18.75,52.5,48.75,56.25,58.333333333333336
771,86.25,127.5,26.25,123.75,26.25,60,56.25,63.75,63.333333333333336
772,86.25,131.25,22.5,120,26.25,63.75,56.25,67.5,63.75
773,90,127.5,22.5,120,22.5,60,52.5,63.75,62.083333333333336
774,86.25,127.5,22.5,120,22.5,60,52.5,63.75,61.666666666666664
775,78.75,131.25,18.75,112.5,18.75,60,48.75,60,58.75
776,71.25,127.5,15,108.75,11.25,52.5,41.25,48.75,52.916666666666664
777,78.75,131.25,15,108.75,11.25,48.75,41.25,45,53.333333333333336
778,82.5,142.5,22.5,116.25,18.75,52.5,48.75,52.5,59.583333333333336
779,82.5,150,26.25,120,22.5,56.25,52.5,60,63.333333333333336
780,101.25,165,30,127.5,30,63.75,63.75,71.25,72.5
781,116.25,168.75,33.75,131.25,33.75,67.5,67.5,75,77.08333333333333
782,112.5,153.75,26.25,123.75,26.25,63.75,67.5,78.75,72.5
783,101.25,138.75,18.75,116.25,18.75,60,60,75,65.41666666666667
784,105,142.5,26.25,123.75,22.5,67.5,63.75,82.5,70.41666666666667
785,116.25,153.75,33.75,127.5,26.25,71.25,67.5,86.25,75.83333333333333
786,116.25,153.75,33.75,123.75,22.5,67.5,63.75,82.5,73.75
787,97.5,142.5,26.25,108.75,11.25,52.5,52.5,71.25,62.5
788,86.25,142.5,22.5,105,3.75,48.75,48.75,63.75,57.916666666666664
789,97.5,161.25,30,108.75,7.5,52.5,56.25,71.25,65.0
790,112.5,168.75,30,105,3.75,48.75,56.25,67.5,65.83333333333333
791,116.25,168.75,30,101.25,0,45,52.5,67.5,64.58333333333333
792,120,176.25,33.75,112.5,7.5,52.5,60,78.75,71.25
793,127.5,180,37.5,120,15,60,67.5,86.25,77.08333333333333
794,127.5,168.75,30,108.75,3.75,52.5,63.75,86.25,71.25
795,123.75,165,26.25,101.25,-3.75,48.75,60,82.5,67.08333333333333
796,120,161.25,33.75,105,0,52.5,63.75,86.25,69.16666666666667
797,116.25,161.25,37.5,105,0,52.5,63.75,90,69.58333333333333
798,105,157.5,33.75,97.5,-7.5,45,56.25,82.5,63.333333333333336
799,101.25,150,30,86.25,-18.75,33.75,45,71.25,55.416666666666664
800,97.5,157.5,33.75,82.5,-22.5,30,41.25,67.5,54.166666666666664
801,86.25,165,33.75,78.75,-26.25,26.25,37.5,63.75,51.666666666666664
802,90,168.75,37.5,82.5,-26.25,22.5,37.5,63.75,52.916666666666664
803,97.5,172.5,45,82.5,-26.25,22.5,37.5,63.75,55.0
804,105,172.5,45,86.25,-26.25,26.25,41.25,67.5,57.5
805,120,183.75,48.75,93.75,-18.75,33.75,48.75,78.75,65.41666666666667
806,120,183.75,45,86.25,-26.25,26.25,45,78.75,62.083333333333336
807,105,165,41.25,75,-37.5,18.75,37.5,67.5,52.5
808,86.25,146.25,41.25,67.5,-45,11.25,30,60,44.166666666666664
809,78.75,146.25,45,67.5,-45,7.5,26.25,56.25,42.5
810,75,142.5,41.25,60,-52.5,0,18.75,52.5,37.5
811,60,131.25,41.25,52.5,-60,-7.5,7.5,41.25,29.583333333333332
812,45,120,41.25,41.25,-67.5,-15,-3.75,30,21.25
813,45,127.5,45,41.25,-67.5,-18.75,-3.75,26.25,21.666666666666668
814,41.25,138.75,56.25,52.5,-63.75,-15,0,26.25,26.25
815,33.75,135,56.25,52.5,-63.75,-18.75,-7.5,22.5,23.333333333333332
816,33.75,131.25,60,52.5,-63.75,-18.75,-3.75,22.5,23.75
817,41.25,127.5,60,56.25,-60,-15,0,30,26.666666666666668
818,45,123.75,52.5,48.75,-63.75,-22.5,-3.75,26.25,22.916666666666668
819,30,116.25,48.75,41.25,-71.25,-26.25,-11.25,18.75,16.25
820,22.5,112.5,48.75,33.75,-75,-26.25,-15,15,12.916666666666666
821,18.75,112.5,48.75,30,-78.75,-30,-18.75,11.25,10.416666666666666
822,11.25,101.25,48.75,26.25,-82.5,-33.75,-22.5,3.75,5.833333333333333
823,0,82.5,37.5,11.25,-93.75,-45,-37.5,-7.5,-5.833333333333333
824,-7.5,78.75,37.5,3.75,-101.25,-52.5,-45,-18.75,-11.666666666666666
825,-7.5,82.5,33.75,0,-101.25,-56.25,-45,-18.75,-12.5
826,-15,86.25,37.5,0,-105,-56.25,-48.75,-22.5,-13.75
827,-18.75,86.25,37.5,0,-101.25,-56.25,-45,-22.5,-13.333333333333334
828,-15,86.25,33.75,0,-105,-60,-48.75,-22.5,-14.583333333333334
829,-7.5,86.25,37.5,3.75,-97.5,-52.5,-41.25,-18.75,-10.0
830,-7.5,75,33.75,0,-101.25,-56.25,-45,-18.75,-13.333333333333334
831,-18.75,63.75,30,-7.5,-108.75,-60,-48.75,-26.25,-19.583333333333332
832,-26.25,60,26.25,-15,-112.5,-63.75,-52.5,-26.25,-23.333333333333332
833,-33.75,60,26.25,-18.75,-116.25,-71.25,-56.25,-30,-26.666666666666668
834,-45,52.5,22.5,-26.25,-120,-75,-63.75,-37.5,-32.5
835,-56.25,45,22.5,-30,-123.75,-78.75,-67.5,-41.25,-36.666666666666664
836,-56.25,45,26.25,-37.5,-131.25,-82.5,-71.25,-52.5,-40.0
837,-60,45,22.5,-41.25,-131.25,-86.25,-78.75,-60,-43.333333333333336
838,-67.5,37.5,22.5,-41.25,-135,-90,-78.75,-60,-45.833333333333336
839,-67.5,37.5,26.25,-41.25,-135,-90,-78.75,-60,-45.416666666666664
840,-60,52.5,26.25,-33.75,-127.5,-82.5,-75,-56.25,-39.583333333333336
841,-48.75,52.5,26.25,-30,-123.75,-78.75,-67.5,-45,-35.0
842,-56.25,18.75,18.75,-37.5,-131.25,-86.25,-71.25,-48.75,-43.75
843,-60,0,7.5,-52.5,-142.5,-97.5,-82.5,-60,-54.166666666666664
844,-63.75,7.5,7.5,-56.25,-146.25,-97.5,-82.5,-60,-54.583333333333336
845,-71.25,11.25,7.5,-56.25,-146.25,-97.5,-82.5,-60,-55.0
846,-71.25,15,11.25,-60,-142.5,-93.75,-78.75,-56.25,-52.916666666666664
847,-67.5,15,3.75,-71.25,-153.75,-105,-93.75,-71.25,-60.416666666666664
848,-82.5,11.25,3.75,-71.25,-153.75,-108.75,-97.5,-75,-63.75
849,-90,15,3.75,-71.25,-153.75,-108.75,-97.5,-78.75,-64.58333333333333
850,-86.25,22.5,7.5,-67.5,-153.75,-108.75,-97.5,-78.75,-62.5
851,-82.5,18.75,7.5,-71.25,-157.5,-112.5,-97.5,-78.75,-63.75
852,-75,18.75,11.25,-63.75,-150,-105,-90,-71.25,-58.333333333333336
853,-67.5,22.5,11.25,-56.25,-138.75,-97.5,-82.5,-63.75,-52.5
854,-71.25,15,7.5,-60,-146.25,-101.25,-86.25,-63.75,-56.25
855,-78.75,3.75,0,-67.5,-153.75,-108.75,-90,-67.5,-62.5
856,-82.5,3.75,3.75,-67.5,-150,-101.25,-86.25,-63.75,-60.416666666666664
857,-90,3.75,0,-67.5,-150,-105,-86.25,-67.5,-62.5
858,-82.5,3.75,0,-71.25,-153.75,-105,-86.25,-67.5,-62.5
859,-86.25,3.75,-3.75,-78.75,-157.5,-108.75,-93.75,-75,-66.66666666666667
860,-90,15,-7.5,-82.5,-161.25,-112.5,-97.5,-78.75,-68.33333333333333
861,-90,22.5,-3.75,-78.75,-157.5,-108.75,-93.75,-78.75,-65.41666666666667
862,-86.25,26.25,0,-75,-153.75,-108.75,-93.75,-78.75,-63.333333333333336
863,-82.5,26.25,3.75,-67.5,-146.25,-101.25,-90,-75,-59.166666666666664
864,-78.75,26.25,0,-67.5,-146.25,-101.25,-90,-71.25,-58.75
865,-71.25,30,3.75,-56.25,-138.75,-93.75,-78.75,-63.75,-52.083333333333336
866,-75,18.75,3.75,-56.25,-138.75,-93.75,-78.75,-60,-53.333333333333336
867,-75,15,-3.75,-63.75,-142.5,-93.75,-78.75,-60,-55.833333333333336
868,-75,18.75,0,-60,-138.75,-90,-78.75,-56.25,-53.333333333333336
869,-75,22.5,0,-63.75,-142.5,-90,-78.75,-56.25,-53.75
870,-75,18.75,-3.75,-63.75,-142.5,-93.75,-78.75,-60,-55.416666666666664
871,-78.75,18.75,-3.75,-67.5,-142.5,-97.5,-82.5,-63.75,-57.5
872,-90,18.75,-7.5,-71.25,-146.25,-101.25,-90,-71.25,-62.083333333333336
873,-93.75,26.25,0,-67.5,-142.5,-97.5,-86.25,-71.25,-59.166666666666664
874,-78.75,33.75,3.75,-63.75,-138.75,-93.75,-82.5,-67.5,-54.166666666666664
875,-78.75,30,3.75,-60,-135,-90,-82.5,-67.5,-53.333333333333336
876,-78.75,30,3.75,-56.25,-131.25,-86.25,-78.75,-63.75,-51.25
877,-67.5,37.5,7.5,-45,-123.75,-78.75,-71.25,-56.25,-44.166666666666664
878,-60,30,3.75,-48.75,-127.5,-82.5,-71.25,-52.5,-45.416666666666664
879,-63.75,22.5,0,-56.25,-131.25,-82.5,-71.25,-56.25,-48.75
880,-67.5,26.25,0,-56.25,-127.5,-78.75,-71.25,-52.5,-47.5
881,-67.5,30,0,-52.5,-127.5,-78.75,-67.5,-48.75,-45.833333333333336
882,-67.5,30,3.75,-56.25,-127.5,-78.75,-71.25,-52.5,-46.666666666666664
883,-75,26.25,0,-60,-131.25,-82.5,-75,-56.25,-50.416666666666664
884,-86.25,26.25,-3.75,-63.75,-135,-86.25,-75,-60,-53.75
885,-93.75,26.25,-3.75,-67.5,-138.75,-90,-78.75,-63.75,-56.666666666666664
886,-82.5,37.5,0,-60,-135,-86.25,-78.75,-63.75,-52.083333333333336
887,-71.25,41.25,-3.75,-60,-131.25,-90,-78.75,-63.75,-50.833333333333336
888,-71.25,41.25,0,-56.25,-127.5,-82.5,-75,-56.25,-47.5
889,-78.75,30,0,-52.5,-127.5,-82.5,-71.25,-56.25,-48.75
890,-82.5,18.75,-7.5,-56.25,-131.25,-86.25,-75,-56.25,-52.916666666666664
891,-71.25,22.5,-11.25,-60,-131.25,-86.25,-78.75,-60,-52.916666666666664
892,-71.25,26.25,-11.25,-60,-131.25,-86.25,-75,-56.25,-51.666666666666664
893,-63.75,30,-7.5,-56.25,-127.5,-78.75,-67.5,-48.75,-46.666666666666664
894,-63.75,26.25,-3.75,-56.25,-123.75,-75,-67.5,-48.75,-45.833333333333336
895,-67.5,22.5,-3.75,-60,-127.5,-78.75,-71.25,-52.5,-48.75
896,-71.25,30,-7.5,-63.75,-135,-86.25,-78.75,-60,-52.5
897,-75,37.5,-3.75,-67.5,-131.25,-86.25,-78.75,-60,-51.666666666666664
898,-82.5,37.5,0,-63.75,-131.25,-82.5,-75,-60,-50.833333333333336
899,-82.5,41.25,0,-63.75,-127.5,-82.5,-75,-60,-50.0
900,-75,45,3.75,-52.5,-120,-75,-67.5,-48.75,-43.333333333333336
901,-56.25,41.25,7.5,-45,-112.5,-67.5,-60,-45,-37.5
902,-56.25,30,0,-48.75,-120,-75,-67.5,-48.75,-42.916666666666664
903,-67.5,22.5,-7.5,-60,-127.5,-82.5,-71.25,-52.5,-49.583333333333336
904,-71.25,22.5,-7.5,-63.75,-131.25,-82.5,-75,-52.5,-51.25
905,-63.75,26.25,-7.5,-63.75,-127.5,-78.75,-71.25,-48.75,-48.333333333333336
906,-71.25,22.5,-11.25,-67.5,-131.25,-82.5,-75,-52.5,-52.083333333333336
907,-90,11.25,-15,-75,-135,-86.25,-78.75,-56.25,-58.333333333333336
908,-93.75,3.75,-15,-82.5,-142.5,-93.75,-86.25,-67.5,-64.16666666666667
909,-90,7.5,-18.75,-86.25,-142.5,-97.5,-90,-71.25,-65.41666666666667
910,-78.75,33.75,-11.25,-75,-131.25,-86.25,-78.75,-60,-54.166666666666664
911,-67.5,45,-7.5,-67.5,-127.5,-82.5,-75,-56.25,-48.75
912,-67.5,33.75,-7.5,-67.5,-127.5,-82.5,-75,-60,-50.416666666666664
913,-60,33.75,-7.5,-63.75,-123.75,-78.75,-71.25,-52.5,-47.083333333333336
914,-56.25,30,-11.25,-63.75,-123.75,-75,-67.5,-45,-45.833333333333336
915,-60,33.75,-11.25,-67.5,-127.5,-75,-63.75,-41.25,-45.833333333333336
916,-60,33.75,-15,-71.25,-127.5,-78.75,-67.5,-45,-47.916666666666664
917,-60,18.75,-18.75,-75,-135,-82.5,-71.25,-48.75,-52.5
918,-63.75,15,-15,-78.75,-138.75,-86.25,-75,-52.5,-55.0
919,-71.25,18.75,-18.75,-86.25,-142.5,-93.75,-82.5,-63.75,-60.0
920,-82.5,18.75,-26.25,-90,-146.25,-97.5,-90,-71.25,-65.0
921,-82.5,22.5,-18.75,-86.25,-146.25,-97.5,-86.25,-67.5,-62.5
922,-75,33.75,-15,-82.5,-142.5,-90,-82.5,-63.75,-57.5
923,-78.75,26.25,-18.75,-86.25,-142.5,-97.5,-86.25,-67.5,-61.25
924,-78.75,26.25,-18.75,-82.5,-138.75,-97.5,-82.5,-63.75,-59.583333333333336
925,-63.75,33.75,-15,-78.75,-135,-90,-75,-52.5,-52.916666666666664
926,-56.25,30,-18.75,-78.75,-138.75,-86.25,-75,-52.5,-52.916666666666664
927,-60,22.5,-26.25,-90,-146.25,-93.75,-82.5,-60,-59.583333333333336
928,-63.75,26.25,-26.25,-93.75,-150,-97.5,-82.5,-60,-60.833333333333336
929,-67.5,22.5,-30,-97.5,-150,-93.75,-82.5,-56.25,-61.666666666666664
930,-67.5,15,-30,-97.5,-153.75,-97.5,-82.5,-60,-63.75
931,-75,7.5,-30,-101.25,-153.75,-101.25,-82.5,-60,-66.25
932,-82.5,7.5,-33.75,-108.75,-157.5,-105,-90,-67.5,-70.83333333333333
933,-82.5,18.75,-33.75,-108.75,-157.5,-108.75,-90,-71.25,-70.41666666666667
934,-82.5,26.25,-22.5,-105,-153.75,-105,-86.25,-67.5,-66.25
935,-82.5,22.5,-26.25,-108.75,-157.5,-105,-86.25,-67.5,-67.91666666666667
936,-82.5,18.75,-26.25,-105,-157.5,-105,-86.25,-63.75,-67.5
937,-71.25,22.5,-22.5,-97.5,-146.25,-93.75,-75,-56.25,-60.0
938,-67.5,15,-26.25,-97.5,-146.25,-97.5,-75,-52.5,-60.833333333333336
939,-71.25,7.5,-30,-101.25,-153.75,-101.25,-82.5,-56.25,-65.41666666666667
940,-71.25,7.5,-33.75,-105,-153.75,-101.25,-82.5,-60,-66.66666666666667
941,-63.75,11.25,-33.75,-108.75,-157.5,-101.25,-82.5,-60,-66.25
942,-71.25,7.5,-37.5,-116.25,-161.25,-108.75,-86.25,-60,-70.41666666666667
943,-78.75,7.5,-37.5,-120,-165,-108.75,-90,-63.75,-72.91666666666667
944,-82.5,11.25,-37.5,-120,-165,-108.75,-93.75,-67.5,-73.75
945,-90,11.25,-33.75,-120,-165,-112.5,-93.75,-71.25,-75.0
946,-93.75,15,-33.75,-120,-165,-112.5,-93.75,-67.5,-74.58333333333333
947,-86.25,15,-37.5,-123.75,-168.75,-116.25,-97.5,-71.25,-76.25
948,-75,15,-37.5,-120,-168.75,-116.25,-97.5,-71.25,-74.58333333333333
949,-63.75,18.75,-33.75,-108.75,-157.5,-108.75,-86.25,-60,-66.66666666666667
950,-63.75,11.25,-41.25,-112.5,-161.25,-108.75,-86.25,-60,-69.16666666666667
951,-71.25,3.75,-45,-120,-168.75,-112.5,-93.75,-63.75,-74.58333333333333
952,-75,3.75,-48.75,-123.75,-172.5,-116.25,-97.5,-67.5,-77.5
953,-71.25,3.75,-45,-123.75,-168.75,-112.5,-93.75,-63.75,-75.0
954,-67.5,0,-48.75,-127.5,-172.5,-120,-97.5,-63.75,-77.5
955,-71.25,3.75,-48.75,-131.25,-176.25,-120,-101.25,-67.5,-79.16666666666667
956,-82.5,7.5,-48.75,-138.75,-183.75,-123.75,-105,-75,-83.33333333333333
957,-90,11.25,-45,-135,-180,-120,-105,-78.75,-82.5
958,-90,11.25,-45,-135,-180,-120,-105,-78.75,-82.5
959,-86.25,11.25,-48.75,-135,-180,-123.75,-105,-78.75,-82.91666666666667
960,-86.25,11.25,-45,-131.25,-176.25,-120,-101.25,-75,-80.41666666666667
961,-75,15,-41.25,-120,-168.75,-112.5,-93.75,-63.75,-73.33333333333333
962,-71.25,3.75,-41.25,-120,-168.75,-108.75,-90,-56.25,-72.5
963,-71.25,-3.75,-48.75,-127.5,-176.25,-116.25,-93.75,-60,-77.5
964,-75,0,-45,-131.25,-180,-112.5,-93.75,-63.75,-77.91666666666667
965,-78.75,-3.75,-45,-127.5,-176.25,-112.5,-93.75,-60,-77.5
966,-75,-7.5,-48.75,-131.25,-176.25,-116.25,-97.5,-63.75,-79.58333333333333
967,-82.5,-7.5,-52.5,-138.75,-180,-120,-101.25,-67.5,-83.33333333333333
968,-90,-3.75,-56.25,-146.25,-187.5,-127.5,-108.75,-75,-88.33333333333333
969,-90,7.5,-48.75,-142.5,-187.5,-123.75,-108.75,-78.75,-85.83333333333333
970,-82.5,18.75,-45,-138.75,-183.75,-123.75,-105,-75,-81.66666666666667
971,-78.75,26.25,-45,-135,-180,-120,-101.25,-75,-78.75
972,-82.5,18.75,-48.75,-135,-183.75,-123.75,-105,-75,-81.66666666666667
973,-67.5,11.25,-48.75,-131.25,-180,-120,-101.25,-67.5,-78.33333333333333
974,-60,0,-52.5,-131.25,-183.75,-123.75,-101.25,-67.5,-80.0
975,-75,-15,-52.5,-135,-183.75,-123.75,-101.25,-71.25,-84.16666666666667
976,-78.75,-15,-52.5,-138.75,-187.5,-123.75,-101.25,-67.5,-85.0
977,-78.75,-7.5,-52.5,-138.75,-187.5,-123.75,-101.25,-67.5,-84.16666666666667
978,-75,-7.5,-56.25,-138.75,-183.75,-123.75,-105,-71.25,-84.58333333333333
979,-78.75,-7.5,-60,-142.5,-187.5,-127.5,-108.75,-75,-87.5
980,-86.25,0,-60,-146.25,-191.25,-131.25,-108.75,-78.75,-89.16666666666667
981,-90,3.75,-56.25,-150,-195,-135,-116.25,-86.25,-91.66666666666667
982,-90,7.5,-52.5,-146.25,-191.25,-131.25,-112.5,-86.25,-89.16666666666667
983,-93.75,7.5,-52.5,-146.25,-191.25,-131.25,-112.5,-82.5,-89.16666666666667
984,-86.25,7.5,-52.5,-138.75,-187.5,-127.5,-105,-78.75,-85.41666666666667
985,-67.5,15,-52.5,-131.25,-180,-123.75,-101.25,-71.25,-79.16666666666667
986,-60,15,-48.75,-127.5,-176.25,-120,-97.5,-60,-75.0
987,-71.25,0,-52.5,-135,-183.75,-123.75,-101.25,-63.75,-81.25
988,-75,-7.5,-56.25,-138.75,-183.75,-123.75,-101.25,-67.5,-83.75
989,-71.25,7.5,-52.5,-138.75,-180,-120,-97.5,-63.75,-79.58333333333333
990,-86.25,7.5,-52.5,-135,-180,-120,-93.75,-63.75,-80.41666666666667
991,-86.25,3.75,-52.5,-142.5,-183.75,-123.75,-101.25,-71.25,-84.16666666666667
992,-82.5,3.75,-60,-150,-191.25,-131.25,-108.75,-78.75,-88.75
993,-82.5,-7.5,-71.25,-161.25,-202.5,-142.5,-116.25,-90,-97.08333333333333
994,-78.75,-7.5,-71.25,-161.25,-202.5,-146.25,-123.75,-93.75,-98.33333333333333
995,-82.5,11.25,-56.25,-146.25,-191.25,-135,-116.25,-86.25,-89.16666666666667
996,-90,11.25,-52.5,-142.5,-187.5,-131.25,-108.75,-78.75,-86.66666666666667
997,-75,3.75,-52.5,-138.75,-187.5,-127.5,-105,-75,-84.16666666666667
998,-63.75,-7.5,-56.25,-135,-183.75,-127.5,-105,-75,-83.75
999,-71.25,-11.25,-56.25,-138.75,-183.75,-123.75,-101.25,-71.25,-84.16666666666667
1000,-71.25,-3.75,-56.25,-142.5,-187.5,-127.5,-105,-71.25,-85.0
1001,-78.75,-3.75,-56.25,-142.5,-187.5,-123.75,-105,-71.25,-85.41666666666667
1002,-75,-3.75,-56.25,-138.75,-183.75,-123.75,-101.25,-71.25,-83.75
1003,-78.75,-3.75,-60,-142.5,-187.5,-127.5,-105,-75,-86.66666666666667
1004,-86.25,-7.5,-63.75,-150,-195,-131.25,-112.5,-82.5,-92.08333333333333
1005,-86.25,-3.75,-60,-150,-195,-131.25,-108.75,-82.5,-90.83333333333333
1006,-82.5,3.75,-56.25,-146.25,-191.25,-131.25,-108.75,-82.5,-88.33333333333333
1007,-78.75,7.5,-56.25,-146.25,-191.25,-131.25,-108.75,-82.5,-87.5
1008,-75,15,-52.5,-142.5,-191.25,-127.5,-105,-78.75,-84.16666666666667
1009,-56.25,18.75,-52.5,-131.25,-180,-120,-97.5,-71.25,-76.66666666666667
1010,-52.5,7.5,-52.5,-127.5,-176.25,-116.25,-93.75,-67.5,-75.41666666666667
1011,-60,0,-56.25,-135,-183.75,-120,-97.5,-67.5,-80.0
1012,-67.5,-3.75,-56.25,-138.75,-183.75,-120,-97.5,-67.5,-81.66666666666667
1013,-71.25,-3.75,-52.5,-138.75,-183.75,-120,-97.5,-67.5,-81.66666666666667
1014,-71.25,0,-52.5,-138.75,-183.75,-116.25,-93.75,-63.75,-80.0
1015,-75,0,-60,-146.25,-187.5,-123.75,-101.25,-71.25,-85.0
1016,-82.5,-7.5,-63.75,-150,-191.25,-131.25,-108.75,-78.75,-90.41666666666667
1017,-82.5,-3.75,-60,-153.75,-195,-135,-112.5,-86.25,-92.08333333333333
1018,-82.5,3.75,-48.75,-142.5,-187.5,-127.5,-105,-78.75,-85.41666666666667
1019,-75,11.25,-48.75,-142.5,-183.75,-127.5,-105,-78.75,-83.33333333333333
1020,-75,15,-45,-138.75,-180,-120,-101.25,-71.25,-79.58333333333333
1021,-67.5,18.75,-45,-127.5,-172.5,-112.5,-90,-63.75,-73.33333333333333
1022,-56.25,26.25,-37.5,-120,-165,-105,-82.5,-56.25,-66.25
1023,-56.25,26.25,-37.5,-120,-165,-105,-82.5,-56.25,-66.25
1024,-60,33.75,-33.75,-120,-165,-101.25,-78.75,-52.5,-64.16666666666667
1025,-63.75,41.25,-22.5,-112.5,-157.5,-93.75,-71.25,-45,-58.333333333333336
1026,-67.5,41.25,-22.5,-108.75,-157.5,-93.75,-75,-48.75,-59.166666666666664
1027,-75,41.25,-18.75,-112.5,-157.5,-97.5,-78.75,-52.5,-61.25
1028,-78.75,45,-15,-116.25,-161.25,-101.25,-82.5,-56.25,-62.916666666666664
1029,-86.25,48.75,-11.25,-116.25,-161.25,-105,-86.25,-60,-64.16666666666667
1030,-86.25,56.25,-3.75,-108.75,-157.5,-101.25,-86.25,-63.75,-61.25
1031,-82.5,60,7.5,-97.5,-146.25,-93.75,-75,-52.5,-53.333333333333336
1032,-63.75,67.5,11.25,-90,-138.75,-86.25,-67.5,-45,-45.833333333333336
1033,-41.25,71.25,15,-75,-127.5,-75,-60,-33.75,-36.25
1034,-37.5,63.75,11.25,-75,-127.5,-78.75,-60,-37.5,-37.916666666666664
1035,-45,52.5,7.5,-82.5,-135,-82.5,-63.75,-41.25,-43.333333333333336
1036,-48.75,52.5,7.5,-86.25,-135,-82.5,-63.75,-37.5,-43.75
1037,-60,60,18.75,-75,-127.5,-71.25,-52.5,-30,-37.5
1038,-60,67.5,22.5,-71.25,-123.75,-67.5,-52.5,-26.25,-34.583333333333336
1039,-56.25,75,22.5,-75,-123.75,-67.5,-52.5,-26.25,-33.75
1040,-71.25,78.75,18.75,-82.5,-127.5,-71.25,-52.5,-30,-37.5
1041,-78.75,93.75,15,-86.25,-123.75,-67.5,-56.25,-30,-37.083333333333336
1042,-71.25,112.5,11.25,-82.5,-120,-63.75,-48.75,-26.25,-32.083333333333336
1043,-63.75,116.25,3.75,-78.75,-116.25,-60,-45,-22.5,-29.583333333333332
1044,-41.25,116.25,-11.25,-78.75,-116.25,-60,-41.25,-18.75,-27.916666666666668
1045,-15,123.75,-26.25,-82.5,-116.25,-56.25,-33.75,-11.25,-24.166666666666668
1046,-7.5,116.25,-37.5,-86.25,-120,-60,-33.75,-7.5,-26.25
1047,-7.5,101.25,-52.5,-101.25,-131.25,-71.25,-45,-15,-35.833333333333336
1048,0,101.25,-52.5,-101.25,-131.25,-67.5,-45,-15,-34.583333333333336
1049,0,97.5,-60,-105,-135,-71.25,-45,-15,-37.083333333333336
1050,-22.5,71.25,-67.5,-116.25,-142.5,-78.75,-56.25,-26.25,-48.75
1051,-30,52.5,-78.75,-127.5,-153.75,-90,-63.75,-37.5,-58.75
1052,-22.5,52.5,-86.25,-138.75,-165,-97.5,-71.25,-45,-63.75
1053,-18.75,60,-82.5,-142.5,-165,-97.5,-71.25,-45,-62.5
1054,-26.25,60,-78.75,-138.75,-165,-101.25,-75,-48.75,-63.75
1055,-30,56.25,-78.75,-142.5,-172.5,-108.75,-82.5,-56.25,-68.33333333333333
1056,-22.5,60,-71.25,-142.5,-168.75,-108.75,-82.5,-56.25,-65.83333333333333
1057,-7.5,67.5,-60,-123.75,-157.5,-97.5,-71.25,-45,-55.0
1058,-7.5,60,-52.5,-112.5,-146.25,-86.25,-60,-33.75,-48.75
1059,-22.5,41.25,-60,-120,-153.75,-93.75,-67.5,-37.5,-57.083333333333336
1060,-30,45,-60,-127.5,-157.5,-97.5,-71.25,-45,-60.416666666666664
1061,-30,48.75,-56.25,-127.5,-157.5,-93.75,-67.5,-45,-58.75
1062,-45,30,-56.25,-131.25,-161.25,-97.5,-71.25,-41.25,-63.75
1063,-56.25,18.75,-63.75,-142.5,-168.75,-105,-82.5,-52.5,-72.5
1064,-52.5,26.25,-67.5,-153.75,-180,-116.25,-90,-63.75,-77.5
1065,-63.75,18.75,-71.25,-157.5,-183.75,-120,-97.5,-75,-83.33333333333333
1066,-75,18.75,-67.5,-153.75,-183.75,-123.75,-97.5,-75,-84.16666666666667
1067,-71.25,30,-67.5,-153.75,-183.75,-123.75,-97.5,-75,-82.5
1068,-71.25,22.5,-63.75,-157.5,-183.75,-123.75,-101.25,-78.75,-84.16666666666667
1069,-63.75,0,-67.5,-153.75,-187.5,-131.25,-105,-82.5,-87.91666666666667
1070,-78.75,-26.25,-63.75,-153.75,-191.25,-135,-108.75,-82.5,-93.33333333333333
1071,-86.25,-30,-67.5,-161.25,-198.75,-138.75,-112.5,-86.25,-97.91666666666667
1072,-78.75,-18.75,-71.25,-161.25,-195,-138.75,-112.5,-82.5,-95.41666666666667
1073,-67.5,-11.25,-67.5,-157.5,-191.25,-131.25,-108.75,-78.75,-90.41666666666667
1074,-71.25,-15,-71.25,-161.25,-191.25,-131.25,-108.75,-78.75,-92.08333333333333
1075,-75,-22.5,-71.25,-165,-195,-135,-108.75,-82.5,-95.0
1076,-82.5,-26.25,-78.75,-172.5,-202.5,-138.75,-116.25,-90,-100.83333333333333
1077,-93.75,-22.5,-75,-168.75,-198.75,-138.75,-112.5,-90,-100.0
1078,-82.5,-11.25,-67.5,-165,-195,-135,-108.75,-90,-95.0
1079,-86.25,-15,-67.5,-161.25,-191.25,-131.25,-108.75,-90,-94.58333333333333
1080,-86.25,-15,-67.5,-157.5,-191.25,-131.25,-108.75,-86.25,-93.75
1081,-71.25,-3.75,-67.5,-150,-187.5,-123.75,-105,-82.5,-87.91666666666667
1082,-63.75,-7.5,-67.5,-150,-187.5,-123.75,-101.25,-75,-86.25
1083,-82.5,-33.75,-75,-157.5,-191.25,-127.5,-105,-78.75,-94.58333333333333
1084,-90,-41.25,-78.75,-165,-195,-127.5,-105,-82.5,-98.33333333333333
1085,-82.5,-26.25,-75,-161.25,-191.25,-123.75,-101.25,-78.75,-93.33333333333333
1086,-78.75,-22.5,-75,-157.5,-191.25,-127.5,-105,-78.75,-92.91666666666667
1087,-82.5,-18.75,-75,-161.25,-195,-127.5,-108.75,-82.5,-94.58333333333333
1088,-97.5,-26.25,-75,-168.75,-198.75,-135,-112.5,-90,-100.41666666666667
1089,-101.25,-26.25,-71.25,-168.75,-198.75,-135,-116.25,-93.75,-101.25
1090,-101.25,-22.5,-67.5,-161.25,-195,-135,-116.25,-93.75,-99.16666666666667
1091,-93.75,-26.25,-63.75,-153.75,-191.25,-135,-120,-97.5,-97.91666666666667
1092,-71.25,-41.25,-52.5,-138.75,-187.5,-138.75,-123.75,-105,-95.41666666666667
1093,-48.75,-56.25,-22.5,-101.25,-172.5,-138.75,-131.25,-112.5,-87.08333333333333
1094,-37.5,-86.25,22.5,-60,-165,-150,-146.25,-131.25,-83.75
1095,-37.5,-131.25,75,-15,-161.25,-168.75,-176.25,-165,-86.66666666666667
1096,-33.75,-165,127.5,26.25,-161.25,-187.5,-202.5,-195,-87.91666666666667
1097,-22.5,-161.25,180,78.75,-142.5,-187.5,-210,-202.5,-74.16666666666667
1098,-11.25,-127.5,232.5,146.25,-97.5,-165,-195,-187.5,-45.0
1099,11.25,-75,270,217.5,-41.25,-120,-157.5,-161.25,-6.25
1100,37.5,-15,307.5,296.25,22.5,-67.5,-112.5,-120,38.75
1101,75,56.25,341.25,375,101.25,3.75,-48.75,-63.75,93.33333333333333
1102,108.75,127.5,367.5,446.25,180,78.75,22.5,0,147.91666666666666
1103,153.75,198.75,375,491.25,243.75,146.25,93.75,63.75,196.25
1104,213.75,285,386.25,558.75,326.25,243.75,187.5,157.5,262.0833333333333
1105,285,397.5,386.25,633.75,435,367.5,315,281.25,344.5833333333333
1106,337.5,513.75,360,678.75,532.5,487.5,442.5,401.25,417.0833333333333
1107,375,641.25,296.25,663.75,603.75,600,566.25,521.25,474.1666666666667
1108,427.5,791.25,202.5,626.25,671.25,720,697.5,656.25,532.5
1109,450,952.5,157.5,630,772.5,862.5,847.5,802.5,608.3333333333334
1110,435,1140,123.75,615,855,1001.25,1005,963.75,682.0833333333334
1111,427.5,1383.75,7.5,506.25,892.5,1136.25,1181.25,1155,743.3333333333334
1112,446.25,1612.5,-153.75,356.25,918.75,1267.5,1357.5,1346.25,794.5833333333334
1113,461.25,1740,-315,191.25,918.75,1365,1481.25,1473.75,812.9166666666666
1114,442.5,1815,-461.25,15,915,1443.75,1582.5,1571.25,813.75
1115,375,1856.25,-536.25,-75,948.75,1522.5,1661.25,1638.75,821.25
1116,281.25,1811.25,-510,-48.75,1020,1582.5,1691.25,1635,829.1666666666666
1117,206.25,1717.5,-491.25,-48.75,1057.5,1601.25,1676.25,1590,812.0833333333334
1118,135,1627.5,-558.75,-165,1001.25,1545,1608.75,1515,745.4166666666666
1119,48.75,1485,-633.75,-330,843.75,1376.25,1443.75,1361.25,621.6666666666666
1120,-56.25,1260,-626.25,-457.5,626.25,1110,1181.25,1125,462.5
1121,-138.75,1023.75,-603.75,-585,352.5,791.25,885,873.75,288.75
1122,-191.25,806.25,-618.75,-757.5,33.75,453.75,588.75,630,105.0
1123,-236.25,607.5,-645,-907.5,-247.5,150,315,405,-62.083333333333336
1124,-277.5,450,-645,-975,-405,-37.5,127.5,232.5,-170.0
1125,-288.75,315,-607.5,-926.25,-423.75,-108.75,22.5,112.5,-211.66666666666666
1126,-281.25,202.5,-555,-821.25,-386.25,-131.25,-41.25,22.5,-221.25
1127,-266.25,142.5,-528.75,-727.5,-333.75,-123.75,-60,-18.75,-212.91666666666666
1128,-236.25,138.75,-495,-630,-270,-78.75,-33.75,-3.75,-178.75
1129,-198.75,142.5,-450,-540,-217.5,-41.25,0,22.5,-142.5
1130,-180,116.25,-416.25,-491.25,-221.25,-52.5,-7.5,11.25,-137.91666666666666
1131,-165,93.75,-375,-442.5,-225,-67.5,-22.5,3.75,-133.33333333333334
1132,-142.5,101.25,-326.25,-375,-198.75,-56.25,-11.25,11.25,-110.83333333333333
1133,-120,131.25,-273.75,-292.5,-153.75,-22.5,15,37.5,-75.41666666666667
1134,-105,146.25,-236.25,-232.5,-120,-7.5,26.25,45,-53.75
1135,-90,142.5,-198.75,-183.75,-93.75,3.75,30,41.25,-38.75
1136,-82.5,131.25,-157.5,-142.5,-75,11.25,26.25,33.75,-28.333333333333332
1137,-75,131.25,-116.25,-101.25,-48.75,22.5,30,33.75,-13.75
1138,-75,127.5,-86.25,-78.75,-45,18.75,22.5,22.5,-10.416666666666666
1139,-67.5,112.5,-71.25,-67.5,-45,11.25,15,15,-10.833333333333334
1140,-60,101.25,-56.25,-52.5,-41.25,15,15,11.25,-7.5
1141,-48.75,93.75,-48.75,-41.25,-37.5,11.25,15,11.25,-5.0
1142,-48.75,75,-48.75,-41.25,-45,3.75,7.5,7.5,-10.0
1143,-52.5,56.25,-48.75,-45,-56.25,-7.5,-3.75,-3.75,-17.916666666666668
1144,-52.5,52.5,-45,-45,-60,-11.25,-7.5,-3.75,-19.166666666666668
1145,-52.5,48.75,-45,-45,-63.75,-18.75,-11.25,-11.25,-22.083333333333332
1146,-48.75,45,-41.25,-45,-67.5,-26.25,-18.75,-18.75,-24.583333333333332
1147,-52.5,37.5,-37.5,-48.75,-75,-33.75,-26.25,-26.25,-29.166666666666668
1148,-52.5,41.25,-37.5,-48.75,-78.75,-37.5,-33.75,-33.75,-31.25
1149,-60,37.5,-41.25,-48.75,-82.5,-45,-45,-41.25,-36.25
1150,-63.75,37.5,-41.25,-45,-82.5,-48.75,-48.75,-48.75,-37.916666666666664
1151,-52.5,48.75,-33.75,-41.25,-82.5,-52.5,-48.75,-45,-34.166666666666664
1152,-52.5,45,-30,-37.5,-82.5,-48.75,-45,-45,-32.916666666666664
1153,-37.5,48.75,-18.75,-18.75,-67.5,-37.5,-33.75,-26.25,-21.25
1154,-26.25,45,-18.75,-15,-67.5,-37.5,-30,-22.5,-19.166666666666668
1155,-37.5,22.5,-26.25,-22.5,-75,-48.75,-41.25,-33.75,-29.166666666666668
1156,-45,15,-30,-26.25,-78.75,-48.75,-45,-33.75,-32.5
1157,-37.5,26.25,-22.5,-22.5,-75,-45,-37.5,-30,-27.083333333333332
1158,-33.75,33.75,-22.5,-18.75,-71.25,-41.25,-37.5,-30,-24.583333333333332
1159,-37.5,30,-26.25,-26.25,-78.75,-48.75,-45,-37.5,-30.0
1160,-45,30,-22.5,-26.25,-75,-45,-45,-37.5,-29.583333333333332
1161,-37.5,41.25,-18.75,-22.5,-75,-45,-41.25,-41.25,-26.666666666666668
1162,-41.25,37.5,-15,-22.5,-71.25,-45,-41.25,-41.25,-26.666666666666668
1163,-41.25,33.75,-18.75,-18.75,-75,-45,-45,-45,-28.333333333333332
1164,-37.5,33.75,-15,-11.25,-67.5,-41.25,-41.25,-37.5,-24.166666666666668
1165,-26.25,45,-7.5,0,-56.25,-30,-26.25,-26.25,-14.166666666666666
1166,-15,52.5,-7.5,7.5,-52.5,-22.5,-18.75,-15,-7.916666666666667
1167,-22.5,37.5,-15,0,-60,-30,-26.25,-18.75,-15.0
1168,-18.75,33.75,-18.75,-3.75,-63.75,-33.75,-30,-18.75,-17.083333333333332
1169,-11.25,33.75,-18.75,0,-60,-30,-26.25,-15,-14.166666666666666
1170,-15,33.75,-15,3.75,-56.25,-26.25,-22.5,-15,-12.5
1171,-22.5,30,-15,3.75,-56.25,-26.25,-22.5,-18.75,-14.166666666666666
1172,-26.25,33.75,-18.75,-3.75,-60,-30,-26.25,-22.5,-17.083333333333332
1173,-26.25,45,-22.5,-7.5,-60,-30,-30,-26.25,-17.5
1174,-30,45,-18.75,0,-56.25,-30,-33.75,-30,-17.083333333333332
1175,-26.25,48.75,-7.5,11.25,-48.75,-18.75,-22.5,-22.5,-9.583333333333334
1176,-15,56.25,-7.5,15,-45,-15,-18.75,-18.75,-5.416666666666667
1177,-3.75,56.25,-7.5,22.5,-37.5,-7.5,-11.25,-11.25,0.0
1178,3.75,52.5,-3.75,33.75,-26.25,0,0,0,6.666666666666667
1179,15,56.25,-7.5,33.75,-30,0,0,0,7.5
1180,22.5,63.75,-11.25,30,-30,3.75,3.75,3.75,9.583333333333334
1181,15,63.75,-7.5,33.75,-22.5,7.5,7.5,11.25,12.083333333333334
1182,3.75,41.25,-15,30,-26.25,0,3.75,3.75,4.583333333333333
1183,0,41.25,-15,30,-30,0,0,0,2.9166666666666665
1184,0,56.25,-15,33.75,-22.5,3.75,0,0,6.25
1185,7.5,71.25,-15,33.75,-22.5,3.75,3.75,0,9.166666666666666
1186,7.5,75,-15,33.75,-26.25,3.75,0,-3.75,8.333333333333334
1187,3.75,78.75,-7.5,41.25,-22.5,3.75,0,-7.5,10.0
1188,7.5,75,-7.5,45,-18.75,3.75,0,-7.5,10.833333333333334
1189,22.5,78.75,3.75,60,-3.75,18.75,15,11.25,22.916666666666668
1190,30,82.5,7.5,75,3.75,30,26.25,22.5,30.833333333333332
1191,33.75,86.25,3.75,71.25,3.75,33.75,30,22.5,31.666666666666668
1192,30,82.5,0,71.25,3.75,33.75,30,26.25,30.833333333333332
1193,26.25,75,0,71.25,3.75,33.75,30,26.25,29.583333333333332
1194,26.25,71.25,0,71.25,3.75,33.75,26.25,26.25,28.75
1195,22.5,71.25,-3.75,67.5,3.75,33.75,26.25,18.75,26.666666666666668
1196,18.75,78.75,0,71.25,7.5,37.5,30,18.75,29.166666666666668
1197,15,78.75,-3.75,67.5,3.75,30,26.25,15,25.833333333333332
1198,18.75,86.25,0,71.25,7.5,33.75,22.5,15,28.333333333333332
1199,26.25,93.75,3.75,82.5,15,37.5,30,18.75,34.166666666666664
1200,33.75,97.5,3.75,90,22.5,45,37.5,30,40.0
1201,48.75,101.25,7.5,97.5,30,48.75,45,37.5,46.25
1202,60,97.5,3.75,101.25,33.75,52.5,48.75,41.25,48.75
1203,56.25,90,3.75,97.5,30,56.25,48.75,41.25,47.083333333333336
1204,52.5,93.75,7.5,101.25,33.75,60,52.5,48.75,50.0
1205,48.75,93.75,7.5,105,37.5,60,56.25,48.75,50.833333333333336
1206,60,101.25,3.75,105,37.5,63.75,56.25,48.75,52.916666666666664
1207,60,97.5,0,105,37.5,60,56.25,48.75,51.666666666666664
1208,56.25,101.25,0,101.25,37.5,63.75,56.25,45,51.25
1209,63.75,108.75,0,101.25,33.75,60,56.25,41.25,51.666666666666664
1210,67.5,116.25,3.75,105,41.25,63.75,60,45,55.833333333333336
1211,71.25,123.75,3.75,108.75,45,67.5,60,45,58.333333333333336
1212,75,135,11.25,120,52.5,71.25,63.75,52.5,64.58333333333333
1213,86.25,142.5,15,127.5,56.25,78.75,75,63.75,71.66666666666667
1214,97.5,138.75,15,135,63.75,86.25,82.5,75,77.08333333333333
1215,97.5,127.5,11.25,131.25,63.75,82.5,78.75,71.25,73.75
1216,86.25,123.75,7.5,127.5,60,82.5,75,71.25,70.41666666666667
1217,86.25,127.5,11.25,131.25,63.75,86.25,78.75,75,73.33333333333333
1218,90,135,11.25,127.5,63.75,86.25,82.5,75,74.58333333333333
1219,90,138.75,11.25,127.5,56.25,82.5,78.75,71.25,72.91666666666667
1220,82.5,131.25,15,123.75,56.25,82.5,78.75,71.25,71.25
1221,86.25,131.25,7.5,112.5,45,71.25,67.5,60,64.58333333333333
1222,90,138.75,7.5,116.25,45,71.25,67.5,56.25,65.83333333333333
1223,86.25,138.75,15,123.75,52.5,78.75,75,63.75,70.41666666666667
1224,93.75,142.5,18.75,127.5,56.25,82.5,78.75,71.25,74.58333333333333
1225,108.75,146.25,22.5,131.25,60,86.25,86.25,75,79.58333333333333
1226,123.75,150,22.5,138.75,63.75,90,93.75,82.5,85.0
1227,127.5,146.25,18.75,135,60,86.25,90,82.5,82.91666666666667
1228,120,138.75,18.75,127.5,56.25,86.25,93.75,86.25,80.83333333333333
1229,116.25,131.25,18.75,123.75,52.5,86.25,93.75,86.25,78.75
1230,116.25,135,18.75,123.75,48.75,86.25,93.75,90,79.16666666666667
1231,120,138.75,22.5,123.75,48.75,86.25,93.75,93.75,80.83333333333333
1232,112.5,138.75,18.75,116.25,41.25,78.75,86.25,86.25,75.41666666666667
1233,112.5,150,18.75,108.75,37.5,75,82.5,82.5,74.16666666666667
1234,105,153.75,26.25,112.5,41.25,75,86.25,86.25,76.25
1235,105,153.75,30,112.5,41.25,75,86.25,86.25,76.66666666666667
1236,101.25,153.75,30,112.5,41.25,75,82.5,82.5,75.41666666666667
1237,112.5,153.75,30,112.5,37.5,71.25,78.75,78.75,75.0
1238,120,146.25,26.25,112.5,37.5,71.25,78.75,82.5,75.0
1239,112.5,138.75,26.25,108.75,33.75,67.5,78.75,86.25,72.5
1240,112.5,142.5,26.25,101.25,30,63.75,78.75,82.5,70.83333333333333
1241,120,150,30,101.25,26.25,63.75,75,82.5,72.08333333333333
1242,112.5,146.25,30,97.5,22.5,60,75,82.5,69.58333333333333
1243,105,146.25,26.25,93.75,15,56.25,71.25,78.75,65.83333333333333
1244,108.75,150,30,90,11.25,52.5,67.5,75,65.0
1245,105,153.75,30,82.5,7.5,48.75,60,71.25,62.083333333333336
1246,97.5,161.25,30,82.5,7.5,45,60,67.5,61.25
1247,93.75,157.5,30,78.75,3.75,41.25,56.25,63.75,58.333333333333336
1248,93.75,157.5,33.75,78.75,0,41.25,56.25,63.75,58.333333333333336
1249,97.5,161.25,37.5,86.25,3.75,45,60,67.5,62.083333333333336
1250,93.75,153.75,41.25,90,3.75,45,60,71.25,62.083333333333336
1251,82.5,142.5,41.25,86.25,0,37.5,56.25,71.25,57.5
1252,78.75,138.75,41.25,75,-7.5,30,48.75,63.75,52.083333333333336
1253,78.75,131.25,41.25,71.25,-15,26.25,45,60,48.75
1254,82.5,127.5,41.25,67.5,-18.75,22.5,37.5,52.5,45.833333333333336
1255,60,116.25,41.25,60,-22.5,15,30,45,38.333333333333336
1256,41.25,105,37.5,52.5,-33.75,3.75,18.75,33.75,28.75
1257,33.75,101.25,37.5,45,-41.25,-3.75,7.5,22.5,22.5
1258,30,108.75,41.25,41.25,-41.25,-7.5,3.75,18.75,21.666666666666668
1259,15,108.75,45,48.75,-37.5,-3.75,7.5,18.75,22.5
1260,15,105,45,45,-41.25,-11.25,3.75,15,19.583333333333332
1261,22.5,105,45,45,-41.25,-11.25,3.75,15,20.416666666666668
1262,26.25,97.5,48.75,48.75,-37.5,-7.5,7.5,22.5,22.916666666666668
1263,37.5,86.25,37.5,37.5,-48.75,-15,0,15,16.666666666666668
1264,33.75,75,30,26.25,-56.25,-22.5,-7.5,7.5,9.583333333333334
1265,26.25,82.5,37.5,33.75,-48.75,-15,-3.75,15,14.166666666666666
1266,11.25,90,41.25,33.75,-48.75,-15,-3.75,15,13.75
1267,7.5,78.75,30,18.75,-60,-26.25,-15,0,3.75
1268,3.75,75,26.25,11.25,-67.5,-30,-18.75,-7.5,-0.8333333333333334
1269,-7.5,78.75,22.5,3.75,-71.25,-33.75,-26.25,-15,-5.416666666666667
1270,-18.75,67.5,26.25,0,-75,-41.25,-33.75,-26.25,-11.25
1271,-30,52.5,30,-3.75,-78.75,-45,-37.5,-30,-15.833333333333334
1272,-30,60,33.75,3.75,-71.25,-41.25,-33.75,-26.25,-11.666666666666666
1273,-22.5,60,33.75,11.25,-67.5,-37.5,-30,-18.75,-7.916666666666667
1274,-18.75,52.5,33.75,11.25,-67.5,-37.5,-30,-18.75,-8.333333333333334
1275,-33.75,37.5,26.25,0,-78.75,-45,-33.75,-22.5,-16.666666666666668
1276,-48.75,18.75,18.75,-11.25,-82.5,-52.5,-41.25,-30,-25.416666666666668
1277,-37.5,26.25,22.5,-7.5,-82.5,-48.75,-37.5,-30,-21.666666666666668
1278,-30,37.5,22.5,-7.5,-82.5,-45,-37.5,-30,-19.166666666666668
1279,-33.75,37.5,18.75,-15,-86.25,-52.5,-41.25,-33.75,-22.916666666666668
1280,-48.75,30,11.25,-30,-97.5,-63.75,-52.5,-45,-32.916666666666664
1281,-63.75,26.25,11.25,-41.25,-105,-67.5,-63.75,-52.5,-39.583333333333336
1282,-60,33.75,11.25,-41.25,-105,-67.5,-60,-52.5,-37.916666666666664
1283,-60,30,7.5,-45,-108.75,-71.25,-67.5,-56.25,-41.25
1284,-63.75,18.75,11.25,-45,-108.75,-75,-71.25,-63.75,-44.166666666666664
1285,-63.75,26.25,18.75,-37.5,-105,-67.5,-63.75,-52.5,-38.333333333333336
1286,-60,26.25,22.5,-30,-97.5,-63.75,-56.25,-45,-33.75
1287,-60,15,15,-33.75,-105,-71.25,-63.75,-48.75,-39.166666666666664
1288,-71.25,3.75,15,-41.25,-108.75,-75,-67.5,-52.5,-44.166666666666664
1289,-63.75,11.25,11.25,-45,-108.75,-71.25,-67.5,-48.75,-42.5
1290,-60,11.25,11.25,-45,-108.75,-71.25,-67.5,-52.5,-42.5
1291,-78.75,-7.5,3.75,-56.25,-120,-82.5,-78.75,-63.75,-53.75
1292,-90,-18.75,0,-63.75,-127.5,-90,-86.25,-71.25,-60.833333333333336
1293,-93.75,-18.75,0,-67.5,-127.5,-90,-86.25,-75,-62.083333333333336
1294,-86.25,0,0,-67.5,-131.25,-90,-86.25,-75,-59.583333333333336
1295,-78.75,15,3.75,-67.5,-123.75,-86.25,-82.5,-71.25,-54.583333333333336
1296,-86.25,7.5,3.75,-63.75,-120,-82.5,-82.5,-71.25,-55.0
1297,-82.5,7.5,3.75,-56.25,-116.25,-82.5,-78.75,-67.5,-52.5
1298,-71.25,3.75,3.75,-52.5,-112.5,-78.75,-71.25,-60,-48.75
1299,-71.25,-7.5,0,-56.25,-116.25,-82.5,-75,-60,-52.083333333333336
1300,-78.75,-11.25,0,-56.25,-120,-82.5,-75,-60,-53.75
1301,-75,-3.75,0,-56.25,-116.25,-78.75,-71.25,-52.5,-50.416666666666664
1302,-71.25,-7.5,-3.75,-60,-123.75,-82.5,-75,-56.25,-53.333333333333336
1303,-82.5,-15,-7.5,-67.5,-131.25,-90,-82.5,-71.25,-60.833333333333336
1304,-90,-15,-7.5,-67.5,-131.25,-93.75,-86.25,-75,-62.916666666666664
1305,-93.75,-3.75,-7.5,-71.25,-131.25,-93.75,-86.25,-75,-62.5
1306,-86.25,11.25,-7.5,-67.5,-127.5,-90,-82.5,-67.5,-57.5
1307,-82.5,22.5,0,-60,-116.25,-82.5,-75,-63.75,-50.833333333333336
1308,-82.5,18.75,0,-56.25,-116.25,-78.75,-75,-67.5,-50.833333333333336
1309,-82.5,3.75,3.75,-52.5,-112.5,-78.75,-71.25,-60,-50.0
1310,-71.25,7.5,0,-45,-108.75,-71.25,-63.75,-52.5,-45.0
1311,-63.75,11.25,-3.75,-45,-108.75,-75,-63.75,-48.75,-44.166666666666664
1312,-63.75,11.25,-3.75,-52.5,-112.5,-78.75,-71.25,-56.25,-47.5
1313,-71.25,7.5,-7.5,-56.25,-116.25,-78.75,-71.25,-56.25,-50.0
1314,-78.75,3.75,-7.5,-52.5,-112.5,-75,-71.25,-56.25,-50.0
1315,-78.75,-3.75,-3.75,-52.5,-108.75,-71.25,-67.5,-52.5,-48.75
1316,-78.75,0,-3.75,-52.5,-112.5,-71.25,-67.5,-52.5,-48.75
1317,-97.5,0,-7.5,-60,-116.25,-78.75,-75,-63.75,-55.416666666666664
1318,-97.5,3.75,-3.75,-56.25,-112.5,-75,-75,-60,-52.916666666666664
1319,-90,15,0,-52.5,-108.75,-75,-71.25,-60,-49.166666666666664
1320,-78.75,18.75,-3.75,-52.5,-108.75,-71.25,-71.25,-60,-47.5
1321,-78.75,15,0,-45,-101.25,-67.5,-63.75,-52.5,-43.75
1322,-75,7.5,3.75,-37.5,-97.5,-60,-60,-45,-40.416666666666664
1323,-75,0,0,-45,-105,-67.5,-67.5,-52.5,-45.833333333333336
1324,-71.25,0,-3.75,-48.75,-105,-63.75,-67.5,-52.5,-45.833333333333336
1325,-60,11.25,-3.75,-45,-101.25,-60,-63.75,-48.75,-41.25
1326,-75,7.5,0,-41.25,-97.5,-56.25,-60,-45,-40.833333333333336
1327,-86.25,0,-3.75,-48.75,-105,-63.75,-67.5,-52.5,-47.5
1328,-90,-7.5,-11.25,-60,-112.5,-71.25,-75,-60,-54.166666666666664
1329,-97.5,-7.5,-11.25,-60,-116.25,-75,-78.75,-67.5,-57.083333333333336
1330,-78.75,11.25,-7.5,-52.5,-108.75,-71.25,-75,-63.75,-49.583333333333336
1331,-67.5,26.25,-3.75,-48.75,-105,-67.5,-71.25,-60,-44.166666666666664
1332,-82.5,18.75,0,-52.5,-105,-67.5,-71.25,-60,-46.666666666666664
1333,-71.25,22.5,3.75,-41.25,-97.5,-56.25,-63.75,-48.75,-39.166666666666664
1334,-63.75,22.5,3.75,-33.75,-90,-52.5,-56.25,-41.25,-34.583333333333336
1335,-67.5,11.25,0,-33.75,-90,-48.75,-52.5,-37.5,-35.416666666666664
1336,-67.5,3.75,-7.5,-45,-97.5,-56.25,-60,-45,-41.666666666666664
1337,-67.5,3.75,-7.5,-48.75,-101.25,-56.25,-60,-45,-42.5
1338,-71.25,3.75,-3.75,-45,-97.5,-52.5,-56.25,-41.25,-40.416666666666664
1339,-63.75,11.25,0,-45,-97.5,-52.5,-56.25,-41.25,-38.333333333333336
1340,-60,15,-3.75,-48.75,-97.5,-52.5,-60,-48.75,-39.583333333333336
1341,-75,7.5,-7.5,-56.25,-105,-60,-63.75,-52.5,-45.833333333333336
1342,-78.75,7.5,-7.5,-60,-105,-63.75,-67.5,-56.25,-47.916666666666664
1343,-86.25,7.5,-3.75,-56.25,-101.25,-63.75,-67.5,-56.25,-47.5
1344,-82.5,11.25,-3.75,-56.25,-105,-63.75,-67.5,-60,-47.5
1345,-71.25,18.75,-3.75,-52.5,-101.25,-60,-63.75,-52.5,-42.916666666666664
1346,-60,26.25,0,-41.25,-90,-52.5,-52.5,-37.5,-34.166666666666664
1347,-63.75,22.5,-3.75,-45,-93.75,-56.25,-56.25,-45,-37.916666666666664
1348,-75,11.25,-7.5,-52.5,-97.5,-60,-60,-48.75,-43.333333333333336
1349,-78.75,0,-11.25,-56.25,-101.25,-60,-63.75,-48.75,-46.666666666666664
1350,-67.5,3.75,-15,-60,-105,-60,-63.75,-48.75,-46.25
1351,-63.75,7.5,-7.5,-56.25,-101.25,-60,-60,-45,-42.916666666666664
1352,-78.75,3.75,-11.25,-63.75,-108.75,-67.5,-71.25,-56.25,-50.416666666666664
1353,-90,3.75,-15,-71.25,-112.5,-71.25,-71.25,-60,-54.166666666666664
1354,-86.25,7.5,-11.25,-67.5,-112.5,-67.5,-71.25,-56.25,-51.666666666666664
1355,-82.5,15,-11.25,-63.75,-108.75,-67.5,-71.25,-56.25,-49.583333333333336
1356,-86.25,15,-15,-67.5,-108.75,-67.5,-71.25,-56.25,-50.833333333333336
1357,-71.25,18.75,-11.25,-60,-108.75,-63.75,-71.25,-52.5,-46.666666666666664
1358,-60,18.75,-11.25,-56.25,-105,-60,-63.75,-45,-42.5
1359,-63.75,15,-15,-56.25,-105,-60,-60,-41.25,-42.916666666666664
1360,-67.5,7.5,-18.75,-63.75,-112.5,-63.75,-67.5,-45,-47.916666666666664
1361,-63.75,15,-15,-60,-105,-56.25,-60,-41.25,-42.916666666666664
1362,-71.25,18.75,-15,-60,-105,-56.25,-60,-41.25,-43.333333333333336
1363,-78.75,11.25,-18.75,-63.75,-108.75,-63.75,-67.5,-48.75,-48.75
1364,-86.25,0,-26.25,-78.75,-123.75,-75,-78.75,-56.25,-58.333333333333336
1365,-86.25,0,-22.5,-78.75,-123.75,-75,-82.5,-60,-58.75
1366,-86.25,3.75,-18.75,-78.75,-123.75,-75,-82.5,-63.75,-58.333333333333336
1367,-86.25,3.75,-22.5,-78.75,-123.75,-78.75,-86.25,-67.5,-60.0
1368,-75,7.5,-22.5,-78.75,-120,-75,-82.5,-63.75,-56.666666666666664
1369,-71.25,22.5,-15,-71.25,-112.5,-67.5,-71.25,-52.5,-48.75
1370,-71.25,22.5,-11.25,-63.75,-108.75,-63.75,-67.5,-48.75,-45.833333333333336
1371,-71.25,-3.75,-26.25,-82.5,-123.75,-78.75,-78.75,-56.25,-57.916666666666664
1372,-75,-15,-30,-86.25,-127.5,-82.5,-78.75,-56.25,-61.25
1373,-63.75,0,-30,-86.25,-123.75,-75,-75,-52.5,-56.25
1374,-67.5,0,-26.25,-82.5,-120,-71.25,-71.25,-52.5,-54.583333333333336
1375,-75,-7.5,-33.75,-90,-131.25,-78.75,-78.75,-56.25,-61.25
1376,-82.5,-11.25,-33.75,-97.5,-135,-82.5,-82.5,-60,-65.0
1377,-82.5,0,-26.25,-97.5,-131.25,-82.5,-82.5,-63.75,-62.916666666666664
1378,-90,7.5,-26.25,-93.75,-131.25,-82.5,-82.5,-67.5,-62.916666666666664
1379,-86.25,7.5,-30,-93.75,-131.25,-82.5,-82.5,-67.5,-62.916666666666664
1380,-86.25,7.5,-30,-93.75,-131.25,-82.5,-82.5,-63.75,-62.5
1381,-86.25,7.5,-26.25,-86.25,-123.75,-78.75,-75,-56.25,-58.333333333333336
1382,-75,7.5,-22.5,-78.75,-116.25,-75,-67.5,-48.75,-52.916666666666664
1383,-78.75,-3.75,-26.25,-82.5,-123.75,-78.75,-75,-52.5,-57.916666666666664
1384,-86.25,-15,-30,-93.75,-131.25,-86.25,-82.5,-60,-65.0
1385,-86.25,-11.25,-33.75,-97.5,-135,-90,-82.5,-63.75,-66.66666666666667
1386,-86.25,-7.5,-37.5,-97.5,-131.25,-86.25,-82.5,-60,-65.41666666666667
1387,-90,-11.25,-33.75,-101.25,-131.25,-86.25,-82.5,-60,-66.25
1388,-90,-11.25,-33.75,-105,-135,-90,-86.25,-63.75,-68.33333333333333
1389,-93.75,-11.25,-37.5,-112.5,-142.5,-93.75,-90,-67.5,-72.08333333333333
1390,-90,-3.75,-45,-116.25,-142.5,-93.75,-90,-71.25,-72.5
1391,-93.75,0,-41.25,-112.5,-138.75,-90,-90,-71.25,-70.83333333333333
1392,-93.75,-3.75,-45,-112.5,-142.5,-93.75,-90,-75,-72.91666666666667
1393,-82.5,7.5,-45,-108.75,-135,-86.25,-82.5,-67.5,-66.66666666666667
1394,-67.5,26.25,-37.5,-97.5,-127.5,-78.75,-75,-56.25,-57.083333333333336
1395,-67.5,15,-41.25,-101.25,-135,-86.25,-78.75,-56.25,-61.25
1396,-75,0,-45,-108.75,-142.5,-90,-82.5,-60,-67.08333333333333
1397,-71.25,3.75,-37.5,-105,-138.75,-86.25,-78.75,-56.25,-63.333333333333336
1398,-67.5,7.5,-33.75,-101.25,-138.75,-86.25,-82.5,-56.25,-62.083333333333336
1399,-75,-7.5,-37.5,-105,-142.5,-93.75,-90,-60,-67.91666666666667
1400,-86.25,-22.5,-45,-116.25,-150,-101.25,-97.5,-71.25,-76.66666666666667
1401,-93.75,-22.5,-45,-120,-153.75,-101.25,-101.25,-71.25,-78.75
1402,-93.75,-15,-45,-123.75,-157.5,-105,-105,-78.75,-80.41666666666667
1403,-93.75,-3.75,-41.25,-120,-153.75,-101.25,-101.25,-78.75,-77.08333333333333
1404,-90,0,-41.25,-116.25,-146.25,-97.5,-93.75,-71.25,-72.91666666666667
1405,-90,-7.5,-45,-116.25,-146.25,-93.75,-93.75,-67.5,-73.33333333333333
1406,-71.25,-7.5,-41.25,-105,-138.75,-86.25,-86.25,-56.25,-65.83333333333333
1407,-71.25,-15,-45,-108.75,-142.5,-93.75,-86.25,-60,-69.16666666666667
1408,-75,-26.25,-45,-112.5,-146.25,-93.75,-86.25,-60,-71.66666666666667
1409,-78.75,-33.75,-48.75,-116.25,-150,-97.5,-90,-60,-75.0
1410,-86.25,-37.5,-48.75,-120,-153.75,-101.25,-93.75,-63.75,-78.33333333333333
1411,-97.5,-37.5,-48.75,-120,-153.75,-105,-97.5,-67.5,-80.83333333333333
1412,-93.75,-33.75,-56.25,-127.5,-161.25,-108.75,-101.25,-75,-84.16666666666667
1413,-97.5,-33.75,-63.75,-135,-165,-112.5,-105,-78.75,-87.91666666666667
1414,-105,-26.25,-60,-135,-161.25,-112.5,-105,-78.75,-87.08333333333333
1415,-97.5,-11.25,-52.5,-127.5,-153.75,-105,-101.25,-75,-80.41666666666667
1416,-75,0,-48.75,-120,-150,-105,-101.25,-78.75,-75.41666666666667
1417,-71.25,3.75,-41.25,-112.5,-142.5,-93.75,-93.75,-67.5,-68.75
1418,-67.5,0,-37.5,-105,-135,-90,-86.25,-60,-64.58333333333333
1419,-75,-18.75,-48.75,-108.75,-142.5,-97.5,-93.75,-67.5,-72.5
1420,-75,-22.5,-52.5,-116.25,-150,-105,-101.25,-71.25,-77.08333333333333
1421,-75,-18.75,-48.75,-112.5,-146.25,-97.5,-93.75,-63.75,-72.91666666666667
1422,-75,-22.5,-52.5,-116.25,-146.25,-97.5,-93.75,-63.75,-74.16666666666667
1423,-78.75,-26.25,-48.75,-116.25,-146.25,-93.75,-90,-63.75,-73.75
1424,-86.25,-30,-48.75,-123.75,-150,-101.25,-97.5,-67.5,-78.33333333333333
1425,-90,-22.5,-52.5,-127.5,-157.5,-105,-101.25,-78.75,-81.66666666666667
1426,-90,-3.75,-56.25,-135,-161.25,-108.75,-105,-78.75,-82.08333333333333
1427,-90,0,-48.75,-123.75,-153.75,-101.25,-97.5,-71.25,-76.25
1428,-93.75,-18.75,-41.25,-120,-150,-101.25,-97.5,-75,-77.5
1429,-86.25,-11.25,-41.25,-116.25,-146.25,-101.25,-101.25,-71.25,-75.0
1430,-75,0,-41.25,-112.5,-142.5,-101.25,-93.75,-67.5,-70.41666666666667
1431,-82.5,-18.75,-45,-112.5,-146.25,-105,-97.5,-67.5,-75.0
1432,-86.25,-33.75,-56.25,-123.75,-153.75,-108.75,-105,-75,-82.5
1433,-78.75,-33.75,-52.5,-120,-153.75,-105,-101.25,-71.25,-79.58333333333333
1434,-75,-26.25,-52.5,-120,-150,-101.25,-101.25,-67.5,-77.08333333333333
1435,-86.25,-22.5,-56.25,-123.75,-153.75,-105,-101.25,-67.5,-79.58333333333333
1436,-86.25,-15,-56.25,-127.5,-153.75,-105,-101.25,-71.25,-79.58333333333333
1437,-86.25,-15,-60,-131.25,-157.5,-108.75,-105,-75,-82.08333333333333
1438,-86.25,-11.25,-56.25,-131.25,-157.5,-108.75,-105,-75,-81.25
1439,-93.75,-7.5,-45,-120,-150,-101.25,-101.25,-75,-77.08333333333333
1440,-90,-11.25,-48.75,-123.75,-153.75,-105,-105,-78.75,-79.58333333333333
1441,-86.25,-15,-52.5,-123.75,-153.75,-105,-101.25,-75,-79.16666666666667
1442,-78.75,-11.25,-52.5,-112.5,-142.5,-97.5,-93.75,-60,-72.08333333333333
1443,-67.5,-11.25,-48.75,-108.75,-138.75,-93.75,-86.25,-56.25,-67.91666666666667
1444,-75,-26.25,-48.75,-116.25,-146.25,-97.5,-93.75,-63.75,-74.16666666666667
1445,-75,-26.25,-52.5,-120,-150,-93.75,-93.75,-63.75,-75.0
1446,-71.25,-15,-52.5,-116.25,-146.25,-93.75,-90,-60,-71.66666666666667
1447,-71.25,-15,-56.25,-116.25,-146.25,-93.75,-90,-56.25,-71.66666666666667
1448,-75,-18.75,-52.5,-120,-150,-93.75,-93.75,-60,-73.75
1449,-82.5,-7.5,-45,-120,-146.25,-93.75,-93.75,-63.75,-72.5
1450,-82.5,7.5,-37.5,-116.25,-142.5,-90,-93.75,-60,-68.33333333333333
1451,-82.5,11.25,-30,-108.75,-138.75,-86.25,-90,-60,-65.0
1452,-101.25,15,-22.5,-101.25,-135,-86.25,-90,-60,-64.58333333333333
1453,-97.5,30,-11.25,-86.25,-120,-75,-78.75,-48.75,-54.166666666666664
1454,-78.75,37.5,-7.5,-78.75,-116.25,-71.25,-71.25,-41.25,-47.5
1455,-78.75,30,-11.25,-82.5,-116.25,-67.5,-67.5,-37.5,-47.916666666666664
1456,-82.5,30,-15,-86.25,-123.75,-75,-71.25,-41.25,-51.666666666666664
1457,-71.25,33.75,-11.25,-90,-123.75,-71.25,-71.25,-41.25,-49.583333333333336
1458,-67.5,37.5,-7.5,-86.25,-120,-71.25,-67.5,-37.5,-46.666666666666664
1459,-60,45,0,-78.75,-116.25,-67.5,-63.75,-37.5,-42.083333333333336
1460,-67.5,33.75,-3.75,-82.5,-120,-75,-75,-45,-48.333333333333336
1461,-75,26.25,-7.5,-90,-123.75,-82.5,-82.5,-52.5,-54.166666666666664
1462,-67.5,37.5,0,-86.25,-120,-78.75,-78.75,-48.75,-49.166666666666664
1463,-71.25,41.25,3.75,-78.75,-116.25,-75,-78.75,-45,-46.666666666666664
1464,-78.75,45,11.25,-71.25,-105,-67.5,-71.25,-41.25,-42.083333333333336
1465,-71.25,60,22.5,-60,-97.5,-56.25,-63.75,-33.75,-33.333333333333336
1466,-60,75,30,-48.75,-86.25,-45,-52.5,-22.5,-23.333333333333332
1467,-56.25,75,30,-45,-82.5,-45,-45,-15,-20.416666666666668
1468,-67.5,71.25,22.5,-52.5,-86.25,-41.25,-41.25,-11.25,-22.916666666666668
1469,-78.75,78.75,18.75,-52.5,-82.5,-33.75,-33.75,-3.75,-20.833333333333332
1470,-67.5,93.75,7.5,-56.25,-86.25,-33.75,-33.75,-3.75,-20.0
1471,-52.5,90,-3.75,-60,-86.25,-33.75,-33.75,0,-20.0
1472,-48.75,75,-18.75,-71.25,-93.75,-41.25,-41.25,-11.25,-27.916666666666668
1473,-45,75,-33.75,-82.5,-101.25,-45,-45,-15,-32.5
1474,-37.5,86.25,-37.5,-82.5,-101.25,-45,-45,-11.25,-30.416666666666668
1475,-26.25,86.25,-41.25,-82.5,-97.5,-41.25,-41.25,-11.25,-28.333333333333332
1476,-26.25,75,-45,-82.5,-101.25,-45,-48.75,-15,-32.083333333333336
1477,-26.25,75,-48.75,-86.25,-105,-45,-45,-15,-32.916666666666664
1478,-22.5,78.75,-48.75,-78.75,-97.5,-41.25,-33.75,0,-27.083333333333332
1479,-18.75,63.75,-60,-90,-108.75,-52.5,-45,-3.75,-35.0
1480,-26.25,45,-75,-105,-123.75,-63.75,-60,-22.5,-47.916666666666664
1481,-30,37.5,-78.75,-105,-123.75,-67.5,-60,-22.5,-50.0
1482,-30,33.75,-78.75,-108.75,-127.5,-63.75,-60,-22.5,-50.833333333333336
1483,-30,37.5,-71.25,-108.75,-123.75,-63.75,-60,-22.5,-49.166666666666664
1484,-30,41.25,-67.5,-108.75,-127.5,-63.75,-63.75,-26.25,-49.583333333333336
1485,-30,41.25,-63.75,-112.5,-131.25,-71.25,-67.5,-33.75,-52.083333333333336
1486,-37.5,41.25,-60,-112.5,-131.25,-71.25,-71.25,-37.5,-53.333333333333336
1487,-45,41.25,-52.5,-105,-127.5,-71.25,-71.25,-37.5,-52.083333333333336
1488,-56.25,33.75,-45,-105,-123.75,-67.5,-71.25,-33.75,-52.083333333333336
1489,-60,26.25,-37.5,-97.5,-120,-67.5,-71.25,-33.75,-51.25
1490,-48.75,30,-41.25,-97.5,-123.75,-71.25,-71.25,-30,-50.416666666666664
1491,-45,22.5,-45,-101.25,-127.5,-75,-75,-33.75,-53.333333333333336
1492,-63.75,-7.5,-56.25,-112.5,-138.75,-86.25,-86.25,-45,-66.25
1493,-75,-18.75,-60,-120,-142.5,-90,-90,-48.75,-71.66666666666667
1494,-71.25,-18.75,-60,-120,-146.25,-90,-93.75,-48.75,-72.08333333333333
1495,-82.5,-30,-63.75,-127.5,-153.75,-97.5,-101.25,-60,-79.58333333333333
1496,-86.25,-26.25,-63.75,-135,-157.5,-97.5,-101.25,-60,-80.83333333333333
1497,-82.5,-22.5,-71.25,-138.75,-161.25,-101.25,-108.75,-71.25,-84.16666666666667
1498,-82.5,-15,-71.25,-142.5,-165,-105,-112.5,-75,-85.41666666666667
1499,-78.75,0,-63.75,-138.75,-161.25,-105,-108.75,-67.5,-80.41666666666667
1500,-78.75,0,-63.75,-138.75,-161.25,-108.75,-112.5,-75,-82.08333333333333
1501,-82.5,-7.5,-60,-131.25,-153.75,-101.25,-105,-71.25,-79.16666666666667
1502,-86.25,-15,-60,-127.5,-153.75,-101.25,-105,-63.75,-79.16666666666667
1503,-82.5,-22.5,-71.25,-135,-161.25,-108.75,-116.25,-75,-85.83333333333333
1504,-90,-41.25,-75,-138.75,-165,-112.5,-120,-78.75,-91.25
1505,-93.75,-37.5,-67.5,-135,-157.5,-105,-108.75,-71.25,-86.25
1506,-90,-30,-67.5,-138.75,-161.25,-108.75,-108.75,-75,-86.66666666666667
1507,-86.25,-33.75,-67.5,-138.75,-165,-112.5,-116.25,-78.75,-88.75
1508,-78.75,-30,-67.5,-138.75,-165,-112.5,-112.5,-78.75,-87.08333333333333
1509,-97.5,-41.25,-67.5,-142.5,-165,-112.5,-116.25,-82.5,-91.66666666666667
1510,-108.75,-56.25,-71.25,-150,-168.75,-116.25,-116.25,-86.25,-97.08333333333333
1511,-86.25,-37.5,-75,-146.25,-168.75,-112.5,-112.5,-82.5,-91.25
1512,-82.5,-18.75,-67.5,-138.75,-161.25,-108.75,-108.75,-75,-84.58333333333333
1513,-86.25,-15,-60,-135,-153.75,-105,-105,-71.25,-81.25
1514,-82.5,-7.5,-48.75,-120,-142.5,-93.75,-97.5,-63.75,-72.91666666666667
1515,-78.75,-18.75,-52.5,-120,-146.25,-97.5,-97.5,-67.5,-75.41666666666667
1516,-75,-33.75,-67.5,-131.25,-153.75,-101.25,-105,-71.25,-82.08333333333333
1517,-75,-30,-67.5,-131.25,-150,-101.25,-101.25,-63.75,-80.0
1518,-86.25,-37.5,-60,-127.5,-150,-101.25,-105,-71.25,-82.08333333333333
1519,-86.25,-45,-56.25,-127.5,-157.5,-108.75,-112.5,-78.75,-85.83333333333333
1520,-82.5,-60,-48.75,-120,-161.25,-116.25,-123.75,-90,-89.16666666666667
1521,-78.75,-90,-26.25,-105,-161.25,-131.25,-142.5,-112.5,-94.16666666666667
1522,-82.5,-123.75,22.5,-60,-150,-138.75,-161.25,-138.75,-92.5
1523,-67.5,-146.25,78.75,-3.75,-138.75,-153.75,-191.25,-168.75,-87.91666666666667
1524,-52.5,-161.25,142.5,48.75,-123.75,-168.75,-206.25,-191.25,-79.16666666666667
1525,-48.75,-165,195,105,-101.25,-165,-213.75,-198.75,-65.83333333333333
1526,-15,-127.5,243.75,183.75,-48.75,-131.25,-183.75,-172.5,-27.916666666666668
1527,22.5,-71.25,288.75,270,18.75,-75,-135,-131.25,20.833333333333332
1528,45,-11.25,330,360,97.5,-7.5,-75,-78.75,73.33333333333333
1529,86.25,48.75,363.75,442.5,180,67.5,-11.25,-18.75,128.75
1530,131.25,116.25,382.5,506.25,251.25,135,56.25,41.25,180.0
1531,165,195,393.75,551.25,315,206.25,123.75,105,228.33333333333334
1532,198.75,281.25,386.25,592.5,382.5,288.75,210,183.75,280.4166666666667
1533,251.25,390,386.25,660,483.75,405,326.25,292.5,355.0
1534,292.5,506.25,382.5,723.75,588.75,532.5,450,408.75,431.6666666666667
1535,337.5,645,345,742.5,675,648.75,577.5,528.75,500.0
1536,386.25,795,270,723.75,753.75,772.5,716.25,671.25,565.4166666666666
1537,416.25,963.75,213.75,716.25,847.5,911.25,866.25,813.75,638.75
1538,431.25,1166.25,180,716.25,937.5,1053.75,1027.5,982.5,721.6666666666666
1539,442.5,1395,78.75,645,990,1200,1207.5,1177.5,792.9166666666666
1540,483.75,1582.5,-78.75,528.75,1027.5,1335,1380,1361.25,846.6666666666666
1541,517.5,1676.25,-228.75,412.5,1057.5,1436.25,1507.5,1488.75,874.1666666666666
1542,487.5,1743.75,-378.75,255,1057.5,1522.5,1608.75,1590,876.25
1543,408.75,1766.25,-465,127.5,1065,1582.5,1672.5,1635,865.8333333333334
1544,315,1698.75,-423.75,135,1113.75,1616.25,1672.5,1597.5,858.3333333333334
1545,225,1605,-401.25,127.5,1136.25,1616.25,1642.5,1537.5,832.0833333333334
1546,161.25,1541.25,-468.75,15,1083.75,1567.5,1578.75,1462.5,771.25
1547,90,1406.25,-528.75,-138.75,945,1406.25,1413.75,1305,655.4166666666666
1548,-3.75,1181.25,-532.5,-285,731.25,1143.75,1151.25,1068.75,495.0
1549,-101.25,967.5,-506.25,-431.25,457.5,832.5,866.25,832.5,324.1666666666667
1550,-168.75,776.25,-495,-581.25,161.25,510,581.25,607.5,154.58333333333334
1551,-228.75,577.5,-510,-727.5,-108.75,217.5,318.75,390,-7.916666666666667
1552,-255,423.75,-540,-825,-285,30,135,228.75,-120.83333333333333
1553,-247.5,303.75,-532.5,-806.25,-315,-33.75,45,127.5,-162.08333333333334
1554,-243.75,191.25,-487.5,-723.75,-288.75,-60,-18.75,45,-176.25
1555,-251.25,112.5,-457.5,-656.25,-270,-71.25,-48.75,0,-182.5
1556,-247.5,82.5,-453.75,-603.75,-236.25,-52.5,-41.25,-3.75,-172.91666666666666
1557,-232.5,82.5,-435,-543.75,-202.5,-30,-22.5,7.5,-152.91666666666666
1558,-210,86.25,-401.25,-487.5,-187.5,-22.5,-15,15,-135.83333333333334
1559,-202.5,71.25,-363.75,-446.25,-202.5,-45,-33.75,3.75,-135.41666666666666
1560,-191.25,60,-333.75,-405,-206.25,-60,-48.75,-11.25,-132.91666666666666
1561,-146.25,75,-296.25,-341.25,-180,-48.75,-41.25,-3.75,-109.16666666666667
1562,-112.5,105,-247.5,-270,-138.75,-22.5,-18.75,15,-76.66666666666667
1563,-101.25,123.75,-206.25,-202.5,-97.5,3.75,3.75,37.5,-48.75
1564,-90,120,-187.5,-165,-75,15,7.5,33.75,-37.916666666666664
1565,-75,116.25,-150,-123.75,-52.5,26.25,15,37.5,-22.916666666666668
1566,-67.5,108.75,-112.5,-82.5,-30,37.5,18.75,37.5,-10.0
1567,-67.5,90,-86.25,-63.75,-22.5,33.75,11.25,26.25,-8.75
1568,-60,71.25,-71.25,-56.25,-26.25,22.5,-3.75,11.25,-12.5
1569,-60,60,-56.25,-48.75,-30,18.75,-11.25,3.75,-13.75
1570,-63.75,48.75,-48.75,-45,-33.75,15,-15,0,-15.833333333333334
1571,-60,45,-41.25,-37.5,-33.75,11.25,-18.75,-3.75,-15.416666666666666
1572,-63.75,45,-33.75,-30,-33.75,7.5,-18.75,-3.75,-14.583333333333334
1573,-63.75,37.5,-33.75,-30,-37.5,3.75,-26.25,-15,-18.333333333333332
1574,-60,37.5,-26.25,-18.75,-37.5,0,-26.25,-11.25,-15.833333333333334
1575,-60,30,-30,-15,-37.5,-3.75,-33.75,-15,-18.333333333333332
1576,-52.5,26.25,-30,-15,-41.25,-11.25,-37.5,-18.75,-20.0
1577,-52.5,15,-30,-22.5,-48.75,-18.75,-45,-22.5,-25.0
1578,-60,7.5,-22.5,-18.75,-52.5,-22.5,-48.75,-26.25,-27.083333333333332
1579,-63.75,11.25,-15,-15,-52.5,-18.75,-48.75,-26.25,-25.416666666666668
1580,-63.75,11.25,-18.75,-15,-48.75,-22.5,-52.5,-30,-26.666666666666668
1581,-60,3.75,-22.5,-22.5,-52.5,-26.25,-56.25,-33.75,-30.0
1582,-60,7.5,-22.5,-22.5,-56.25,-26.25,-56.25,-37.5,-30.416666666666668
1583,-60,22.5,-15,-11.25,-48.75,-18.75,-45,-26.25,-22.5
1584,-60,26.25,-11.25,-7.5,-45,-15,-41.25,-26.25,-20.0
1585,-52.5,15,-15,-7.5,-48.75,-18.75,-45,-30,-22.5
1586,-48.75,7.5,-15,-3.75,-48.75,-18.75,-45,-30,-22.5
1587,-41.25,15,-15,3.75,-45,-15,-41.25,-22.5,-17.916666666666668
1588,-37.5,3.75,-22.5,-3.75,-48.75,-22.5,-48.75,-26.25,-22.916666666666668
1589,-41.25,0,-26.25,-11.25,-52.5,-30,-52.5,-30,-27.083333333333332
1590,-37.5,3.75,-18.75,-7.5,-48.75,-22.5,-45,-26.25,-22.5
1591,-22.5,15,-15,0,-45,-18.75,-41.25,-18.75,-16.25
1592,-33.75,11.25,-11.25,3.75,-41.25,-11.25,-37.5,-18.75,-15.416666666666666
1593,-41.25,3.75,-15,-3.75,-45,-18.75,-41.25,-26.25,-20.833333333333332
1594,-37.5,11.25,-15,-3.75,-45,-15,-41.25,-26.25,-19.166666666666668
1595,-26.25,26.25,-7.5,3.75,-33.75,-7.5,-33.75,-18.75,-10.833333333333334
1596,-22.5,26.25,-11.25,7.5,-37.5,-7.5,-33.75,-18.75,-10.833333333333334
1597,-26.25,26.25,-7.5,15,-30,0,-26.25,-11.25,-6.666666666666667
1598,-33.75,30,-3.75,22.5,-22.5,3.75,-22.5,-7.5,-3.75
1599,-33.75,22.5,-7.5,22.5,-26.25,0,-26.25,-11.25,-6.666666666666667
1600,-22.5,22.5,-11.25,22.5,-26.25,0,-22.5,-11.25,-5.416666666666667
1601,-15,26.25,-7.5,22.5,-22.5,7.5,-18.75,-7.5,-1.6666666666666667
1602,-18.75,18.75,-11.25,22.5,-22.5,7.5,-18.75,-7.5,-3.3333333333333335
1603,-11.25,18.75,-18.75,18.75,-26.25,3.75,-22.5,-11.25,-5.416666666666667
1604,0,33.75,-26.25,15,-26.25,0,-26.25,-11.25,-4.583333333333333
1605,0,45,-30,11.25,-30,0,-26.25,-7.5,-4.166666666666667
1606,-22.5,41.25,-15,22.5,-22.5,7.5,-18.75,-7.5,-1.6666666666666667
1607,-22.5,41.25,0,33.75,-11.25,18.75,-15,-3.75,4.583333333333333
1608,-7.5,45,-3.75,37.5,-11.25,18.75,-11.25,-3.75,7.083333333333333
1609,-11.25,45,0,45,0,26.25,-3.75,3.75,11.666666666666666
1610,-3.75,52.5,3.75,56.25,7.5,33.75,3.75,11.25,18.333333333333332
1611,3.75,52.5,3.75,63.75,11.25,37.5,7.5,18.75,22.083333333333332
1612,3.75,45,-3.75,56.25,7.5,30,0,11.25,16.666666666666668
1613,3.75,48.75,-3.75,56.25,7.5,30,0,11.25,17.083333333333332
1614,3.75,52.5,0,60,11.25,33.75,3.75,15,20.0
1615,3.75,37.5,-3.75,56.25,7.5,33.75,0,11.25,16.25
1616,7.5,30,-11.25,52.5,7.5,30,-3.75,7.5,13.333333333333334
1617,11.25,37.5,-15,52.5,3.75,30,-3.75,7.5,13.75
1618,7.5,60,-3.75,63.75,18.75,48.75,15,22.5,25.833333333333332
1619,11.25,63.75,0,71.25,26.25,56.25,18.75,22.5,30.0
1620,7.5,45,-3.75,71.25,22.5,48.75,11.25,18.75,24.583333333333332
1621,26.25,52.5,-3.75,71.25,22.5,48.75,11.25,18.75,27.5
1622,37.5,78.75,7.5,86.25,33.75,60,22.5,30,39.583333333333336
1623,30,78.75,15,97.5,45,63.75,30,37.5,44.166666666666664
1624,22.5,60,3.75,90,33.75,56.25,22.5,30,35.416666666666664
1625,26.25,63.75,0,90,37.5,60,26.25,37.5,37.916666666666664
1626,26.25,67.5,3.75,93.75,45,67.5,30,37.5,41.25
1627,26.25,67.5,7.5,97.5,48.75,67.5,30,37.5,42.5
1628,30,67.5,7.5,101.25,48.75,71.25,33.75,41.25,44.583333333333336
1629,33.75,52.5,7.5,97.5,45,67.5,33.75,37.5,41.666666666666664
1630,41.25,60,7.5,101.25,48.75,71.25,37.5,41.25,45.416666666666664
1631,41.25,71.25,11.25,105,52.5,71.25,37.5,45,48.333333333333336
1632,33.75,75,11.25,108.75,56.25,75,37.5,45,49.166666666666664
1633,30,71.25,11.25,112.5,60,78.75,41.25,48.75,50.416666666666664
1634,37.5,71.25,7.5,116.25,60,78.75,41.25,45,50.833333333333336
1635,63.75,90,7.5,123.75,67.5,86.25,48.75,56.25,60.416666666666664
1636,78.75,90,3.75,123.75,67.5,90,56.25,60,63.333333333333336
1637,67.5,82.5,-3.75,116.25,63.75,90,52.5,56.25,58.333333333333336
1638,71.25,90,0,120,63.75,93.75,56.25,60,61.666666666666664
1639,75,86.25,3.75,123.75,67.5,93.75,56.25,56.25,62.5
1640,60,78.75,3.75,123.75,71.25,97.5,60,60,61.666666666666664
1641,63.75,86.25,3.75,116.25,63.75,97.5,56.25,60,60.833333333333336
1642,67.5,97.5,3.75,120,67.5,101.25,60,63.75,64.58333333333333
1643,67.5,101.25,11.25,131.25,75,105,67.5,67.5,69.58333333333333
1644,75,108.75,15,135,75,105,63.75,63.75,71.25
1645,78.75,116.25,15,135,78.75,105,67.5,71.25,74.16666666666667
1646,86.25,120,18.75,142.5,82.5,108.75,75,78.75,79.16666666666667
1647,90,112.5,18.75,146.25,86.25,108.75,78.75,86.25,80.83333333333333
1648,93.75,112.5,15,142.5,78.75,105,75,78.75,77.91666666666667
1649,90,108.75,11.25,138.75,78.75,105,75,78.75,76.25
1650,93.75,105,11.25,138.75,75,101.25,71.25,75,74.58333333333333
1651,93.75,108.75,15,135,75,105,67.5,78.75,75.41666666666667
1652,93.75,112.5,7.5,127.5,67.5,97.5,63.75,71.25,71.25
1653,101.25,112.5,7.5,123.75,67.5,97.5,63.75,71.25,71.66666666666667
1654,97.5,108.75,11.25,120,63.75,97.5,63.75,71.25,70.41666666666667
1655,97.5,116.25,18.75,123.75,71.25,105,71.25,78.75,75.83333333333333
1656,105,131.25,18.75,127.5,71.25,108.75,78.75,86.25,80.83333333333333
1657,105,142.5,18.75,131.25,75,116.25,86.25,93.75,85.41666666666667
1658,108.75,153.75,22.5,138.75,75,116.25,86.25,97.5,88.75
1659,112.5,138.75,22.5,131.25,67.5,101.25,78.75,90,82.5
1660,108.75,123.75,18.75,120,60,93.75,71.25,82.5,75.41666666666667
1661,105,127.5,15,120,56.25,93.75,71.25,82.5,74.58333333333333
1662,108.75,135,18.75,120,56.25,93.75,75,86.25,77.08333333333333
1663,101.25,135,22.5,116.25,56.25,93.75,75,86.25,76.25
1664,101.25,127.5,18.75,108.75,45,86.25,63.75,78.75,70.0
1665,112.5,123.75,11.25,97.5,37.5,82.5,63.75,78.75,67.5
1666,116.25,131.25,11.25,93.75,37.5,82.5,63.75,78.75,68.33333333333333
1667,105,135,18.75,93.75,37.5,86.25,63.75,82.5,69.16666666666667
1668,105,138.75,22.5,97.5,37.5,86.25,63.75,82.5,70.41666666666667
1669,105,142.5,26.25,101.25,37.5,82.5,63.75,82.5,71.25
1670,93.75,142.5,30,105,37.5,78.75,63.75,82.5,70.41666666666667
1671,90,135,30,101.25,33.75,75,60,78.75,67.08333333333333
1672,97.5,127.5,22.5,93.75,26.25,71.25,56.25,75,63.333333333333336
1673,97.5,123.75,22.5,86.25,18.75,67.5,52.5,71.25,60.0
1674,93.75,123.75,22.5,82.5,15,67.5,52.5,71.25,58.75
1675,97.5,131.25,22.5,82.5,15,71.25,56.25,78.75,61.666666666666664
1676,90,131.25,30,82.5,15,71.25,60,82.5,62.5
1677,75,120,26.25,67.5,0,56.25,45,63.75,50.416666666666664
1678,78.75,120,30,63.75,0,52.5,41.25,56.25,49.166666666666664
1679,78.75,120,33.75,71.25,3.75,56.25,41.25,56.25,51.25
1680,75,120,37.5,75,3.75,56.25,37.5,56.25,51.25
1681,71.25,116.25,45,75,3.75,48.75,33.75,52.5,49.583333333333336
1682,60,112.5,52.5,82.5,3.75,48.75,30,52.5,49.166666666666664
1683,56.25,105,52.5,86.25,3.75,45,30,52.5,47.916666666666664
1684,60,97.5,52.5,78.75,-3.75,37.5,22.5,45,43.333333333333336
1685,48.75,93.75,45,71.25,-11.25,26.25,7.5,33.75,35.0
1686,33.75,93.75,45,67.5,-11.25,26.25,7.5,30,32.5
1687,30,90,45,63.75,-15,22.5,3.75,26.25,29.583333333333332
1688,18.75,78.75,37.5,52.5,-26.25,11.25,-3.75,11.25,20.0
1689,15,78.75,33.75,45,-33.75,7.5,-11.25,3.75,15.416666666666666
1690,15,78.75,37.5,41.25,-33.75,7.5,-15,3.75,15.0
1691,15,75,48.75,48.75,-30,7.5,-11.25,7.5,17.916666666666668
1692,3.75,67.5,48.75,45,-33.75,3.75,-11.25,3.75,14.166666666666666
1693,-11.25,67.5,52.5,48.75,-26.25,7.5,-11.25,0,14.166666666666666
1694,0,75,48.75,52.5,-26.25,7.5,-15,0,15.833333333333334
1695,15,67.5,41.25,48.75,-30,0,-22.5,-3.75,12.916666666666666
1696,3.75,37.5,37.5,37.5,-37.5,-11.25,-33.75,-15,2.0833333333333335
1697,-7.5,30,37.5,33.75,-41.25,-11.25,-37.5,-15,-1.25
1698,-15,37.5,41.25,37.5,-37.5,-7.5,-30,-11.25,1.6666666666666667
1699,-33.75,22.5,41.25,33.75,-37.5,-7.5,-33.75,-18.75,-3.75
1700,-37.5,7.5,37.5,22.5,-48.75,-18.75,-45,-30,-12.5
1701,-26.25,7.5,33.75,15,-52.5,-22.5,-48.75,-33.75,-14.166666666666666
1702,-33.75,7.5,33.75,15,-52.5,-22.5,-48.75,-33.75,-15.0
1703,-41.25,3.75,33.75,7.5,-56.25,-22.5,-48.75,-37.5,-17.916666666666668
1704,-48.75,0,30,7.5,-60,-26.25,-52.5,-41.25,-21.25
1705,-48.75,3.75,30,7.5,-60,-30,-56.25,-45,-22.083333333333332
1706,-41.25,26.25,37.5,18.75,-52.5,-26.25,-52.5,-41.25,-14.583333333333334
1707,-48.75,22.5,37.5,18.75,-52.5,-26.25,-52.5,-37.5,-15.416666666666666
1708,-52.5,3.75,30,7.5,-60,-37.5,-67.5,-45,-24.583333333333332
1709,-41.25,15,30,7.5,-60,-37.5,-63.75,-45,-21.666666666666668
1710,-41.25,18.75,33.75,11.25,-56.25,-33.75,-60,-37.5,-18.333333333333332
1711,-60,0,33.75,3.75,-63.75,-41.25,-67.5,-45,-26.666666666666668
1712,-75,-15,26.25,-7.5,-75,-52.5,-78.75,-63.75,-37.916666666666664
1713,-75,-15,22.5,-18.75,-82.5,-56.25,-86.25,-71.25,-42.5
1714,-82.5,-18.75,18.75,-26.25,-90,-60,-90,-78.75,-47.5
1715,-82.5,-22.5,18.75,-26.25,-90,-60,-90,-78.75,-47.916666666666664
1716,-78.75,-18.75,22.5,-22.5,-86.25,-56.25,-90,-75,-45.0
1717,-82.5,-22.5,22.5,-22.5,-90,-56.25,-90,-75,-46.25
1718,-71.25,-15,26.25,-15,-82.5,-56.25,-82.5,-67.5,-40.416666666666664
1719,-63.75,-15,26.25,-11.25,-78.75,-52.5,-78.75,-60,-37.083333333333336
1720,-75,-30,18.75,-18.75,-90,-63.75,-93.75,-75,-47.5
1721,-90,-45,11.25,-30,-97.5,-71.25,-97.5,-82.5,-55.833333333333336
1722,-82.5,-37.5,11.25,-37.5,-101.25,-67.5,-97.5,-78.75,-54.583333333333336
1723,-63.75,-18.75,11.25,-33.75,-97.5,-63.75,-93.75,-75,-48.333333333333336
1724,-78.75,-22.5,7.5,-33.75,-101.25,-63.75,-93.75,-78.75,-51.666666666666664
1725,-86.25,-26.25,7.5,-41.25,-105,-67.5,-97.5,-82.5,-55.416666666666664
1726,-78.75,-18.75,7.5,-45,-108.75,-71.25,-101.25,-86.25,-55.833333333333336
1727,-75,-11.25,11.25,-41.25,-97.5,-63.75,-93.75,-78.75,-50.0
1728,-90,-7.5,22.5,-33.75,-93.75,-60,-90,-75,-47.5
1729,-97.5,-11.25,22.5,-33.75,-93.75,-63.75,-90,-75,-49.166666666666664
1730,-90,-15,18.75,-26.25,-86.25,-56.25,-86.25,-71.25,-45.833333333333336
1731,-82.5,-15,15,-22.5,-86.25,-60,-90,-71.25,-45.833333333333336
1732,-86.25,-30,11.25,-22.5,-90,-67.5,-93.75,-75,-50.416666666666664
1733,-82.5,-26.25,15,-22.5,-90,-67.5,-93.75,-75,-49.166666666666664
1734,-82.5,-18.75,22.5,-22.5,-86.25,-63.75,-93.75,-71.25,-46.25
1735,-86.25,-30,15,-30,-93.75,-67.5,-97.5,-78.75,-52.083333333333336
1736,-86.25,-37.5,7.5,-30,-93.75,-67.5,-97.5,-78.75,-53.75
1737,-82.5,-33.75,3.75,-37.5,-97.5,-63.75,-93.75,-75,-53.333333333333336
1738,-82.5,-30,15,-33.75,-90,-56.25,-82.5,-67.5,-47.5
1739,-86.25,-26.25,18.75,-30,-86.25,-48.75,-78.75,-67.5,-45.0
1740,-90,-18.75,11.25,-26.25,-86.25,-52.5,-82.5,-71.25,-46.25
1741,-93.75,-18.75,15,-18.75,-78.75,-48.75,-78.75,-67.5,-43.333333333333336
1742,-78.75,-7.5,15,-11.25,-75,-45,-75,-60,-37.5
1743,-75,-11.25,18.75,-11.25,-75,-48.75,-82.5,-63.75,-38.75
1744,-82.5,-15,18.75,-11.25,-75,-52.5,-82.5,-63.75,-40.416666666666664
1745,-75,-15,15,-15,-78.75,-56.25,-82.5,-63.75,-41.25
1746,-71.25,-18.75,15,-18.75,-82.5,-56.25,-86.25,-67.5,-42.916666666666664
1747,-82.5,-30,15,-22.5,-82.5,-56.25,-86.25,-67.5,-45.833333333333336
1748,-82.5,-33.75,15,-22.5,-82.5,-52.5,-82.5,-63.75,-45.0
1749,-75,-33.75,3.75,-26.25,-82.5,-52.5,-86.25,-67.5,-46.666666666666664
1750,-86.25,-37.5,7.5,-26.25,-82.5,-52.5,-86.25,-67.5,-47.916666666666664
1751,-93.75,-30,18.75,-18.75,-75,-45,-78.75,-60,-42.5
1752,-86.25,-18.75,18.75,-15,-75,-45,-75,-60,-39.583333333333336
1753,-71.25,-11.25,22.5,-15,-71.25,-45,-75,-60,-36.25
1754,-71.25,-11.25,26.25,-3.75,-63.75,-41.25,-67.5,-48.75,-31.25
1755,-60,-11.25,22.5,0,-60,-41.25,-67.5,-48.75,-29.583333333333332
1756,-56.25,-18.75,18.75,-7.5,-67.5,-48.75,-75,-56.25,-34.583333333333336
1757,-56.25,-11.25,18.75,-7.5,-67.5,-45,-71.25,-52.5,-32.5
1758,-71.25,-15,15,-11.25,-71.25,-48.75,-75,-52.5,-36.666666666666664
1759,-75,-26.25,15,-15,-75,-45,-75,-56.25,-39.166666666666664
1760,-67.5,-22.5,15,-15,-71.25,-41.25,-71.25,-52.5,-36.25
1761,-63.75,-15,15,-15,-67.5,-37.5,-67.5,-52.5,-33.75
1762,-78.75,-22.5,18.75,-18.75,-71.25,-41.25,-71.25,-60,-38.333333333333336
1763,-90,-26.25,15,-18.75,-75,-41.25,-71.25,-60,-40.833333333333336
1764,-82.5,-15,11.25,-18.75,-71.25,-41.25,-75,-60,-39.166666666666664
1765,-78.75,-15,11.25,-15,-71.25,-45,-75,-60,-38.75
1766,-75,-15,18.75,-7.5,-63.75,-41.25,-71.25,-56.25,-34.583333333333336
1767,-71.25,-11.25,18.75,-3.75,-63.75,-41.25,-67.5,-52.5,-32.5
1768,-63.75,-15,7.5,-7.5,-67.5,-45,-71.25,-52.5,-35.0
1769,-56.25,-11.25,3.75,-11.25,-67.5,-41.25,-67.5,-48.75,-33.333333333333336
1770,-63.75,-15,7.5,-15,-67.5,-37.5,-63.75,-48.75,-33.75
1771,-56.25,-15,11.25,-11.25,-67.5,-37.5,-63.75,-48.75,-32.083333333333336
1772,-56.25,-18.75,7.5,-15,-71.25,-41.25,-67.5,-56.25,-35.416666666666664
1773,-63.75,-18.75,3.75,-22.5,-75,-41.25,-71.25,-60,-38.75
1774,-71.25,-18.75,3.75,-30,-78.75,-45,-75,-63.75,-42.083333333333336
1775,-71.25,-15,3.75,-30,-78.75,-48.75,-78.75,-63.75,-42.5
1776,-71.25,-11.25,7.5,-22.5,-75,-45,-78.75,-63.75,-40.0
1777,-63.75,-7.5,7.5,-22.5,-71.25,-45,-78.75,-63.75,-38.333333333333336
1778,-67.5,-3.75,15,-15,-67.5,-37.5,-71.25,-56.25,-33.75
1779,-75,-7.5,22.5,-7.5,-60,-33.75,-63.75,-48.75,-30.416666666666668
1780,-75,-22.5,11.25,-18.75,-71.25,-45,-71.25,-56.25,-38.75
1781,-63.75,-26.25,3.75,-22.5,-75,-48.75,-75,-60,-40.833333333333336
1782,-63.75,-26.25,3.75,-22.5,-75,-48.75,-71.25,-56.25,-40.0
1783,-56.25,-22.5,3.75,-22.5,-75,-45,-71.25,-52.5,-37.916666666666664
1784,-63.75,-33.75,0,-22.5,-75,-45,-71.25,-52.5,-40.416666666666664
1785,-75,-41.25,-3.75,-30,-82.5,-52.5,-78.75,-63.75,-47.5
1786,-63.75,-22.5,-7.5,-41.25,-90,-60,-82.5,-67.5,-48.333333333333336
1787,-67.5,-15,-3.75,-37.5,-82.5,-52.5,-78.75,-60,-44.166666666666664
1788,-71.25,-18.75,-3.75,-33.75,-78.75,-52.5,-78.75,-60,-44.166666666666664
1789,-78.75,-30,-11.25,-41.25,-90,-63.75,-93.75,-75,-53.75
1790,-86.25,-26.25,-3.75,-30,-82.5,-56.25,-82.5,-63.75,-47.916666666666664
1791,-63.75,-15,3.75,-18.75,-75,-48.75,-75,-56.25,-38.75
1792,-45,-11.25,0,-22.5,-78.75,-52.5,-78.75,-60,-38.75
