samplenr,I,II,V1,V2,V3,V4,V5,V6,measurement
0,-727.5,-236.25,206.25,165,198.75,41.25,82.5,105,-18.333333333333332
1,-735,-262.5,232.5,180,191.25,22.5,63.75,86.25,-24.583333333333332
2,-757.5,-296.25,266.25,206.25,187.5,0,30,52.5,-34.583333333333336
3,-772.5,-333.75,307.5,240,183.75,-30,-3.75,18.75,-43.333333333333336
4,-783.75,-367.5,348.75,266.25,168.75,-63.75,-48.75,-22.5,-55.833333333333336
5,-787.5,-367.5,386.25,292.5,161.25,-90,-75,-48.75,-58.75
6,-768.75,-352.5,408.75,326.25,176.25,-90,-82.5,-60,-49.166666666666664
7,-738.75,-318.75,446.25,386.25,225,-52.5,-48.75,-30,-14.583333333333334
8,-705,-258.75,491.25,461.25,288.75,7.5,3.75,18.75,34.166666666666664
9,-648.75,-187.5,521.25,536.25,352.5,67.5,63.75,71.25,86.25
10,-596.25,-127.5,532.5,596.25,423.75,135,123.75,127.5,135.0
11,-536.25,-52.5,540,645,491.25,206.25,198.75,198.75,187.91666666666666
12,-472.5,45,532.5,686.25,555,288.75,285,288.75,245.41666666666666
13,-405,142.5,513.75,738.75,633.75,382.5,382.5,382.5,307.9166666666667
14,-348.75,251.25,506.25,795,731.25,502.5,506.25,495,382.0833333333333
15,-330,371.25,483.75,817.5,821.25,633.75,648.75,641.25,454.1666666666667
16,-266.25,525,435,817.5,915,772.5,802.5,795,532.9166666666666
17,-172.5,701.25,412.5,862.5,1038.75,933.75,971.25,956.25,633.75
18,-116.25,888.75,386.25,903.75,1162.5,1102.5,1151.25,1132.5,734.5833333333334
19,-71.25,1106.25,288.75,877.5,1256.25,1267.5,1350,1338.75,823.75
20,-52.5,1263.75,165,813.75,1320,1417.5,1526.25,1518.75,885.8333333333334
21,-56.25,1338.75,71.25,761.25,1391.25,1552.5,1676.25,1657.5,932.5
22,-63.75,1372.5,-11.25,663.75,1421.25,1653.75,1788.75,1755,953.3333333333334
23,-116.25,1357.5,-30,618.75,1470,1740,1867.5,1803.75,967.9166666666666
24,-172.5,1305,-3.75,660,1560,1811.25,1901.25,1800,984.5833333333334
25,-232.5,1260,-33.75,600,1567.5,1818.75,1893.75,1766.25,960.0
26,-333.75,1196.25,-93.75,453.75,1503.75,1770,1837.5,1702.5,892.9166666666666
27,-435,1046.25,-112.5,315,1383.75,1635,1687.5,1556.25,786.25
28,-536.25,858.75,-82.5,217.5,1218.75,1421.25,1470,1353.75,657.9166666666666
29,-626.25,678.75,-71.25,112.5,1012.5,1155,1211.25,1132.5,511.6666666666667
30,-723.75,498.75,-93.75,-30,753.75,847.5,926.25,903.75,342.5
31,-843.75,330,-116.25,-202.5,472.5,543.75,652.5,678.75,168.33333333333334
32,-918.75,187.5,-123.75,-318.75,266.25,322.5,446.25,502.5,40.416666666666664
33,-952.5,63.75,-112.5,-330,183.75,198.75,303.75,356.25,-32.083333333333336
34,-945,-33.75,-101.25,-288.75,176.25,146.25,217.5,251.25,-64.16666666666667
35,-907.5,-86.25,-93.75,-236.25,195,146.25,202.5,221.25,-62.083333333333336
36,-896.25,-97.5,-71.25,-161.25,243.75,183.75,236.25,247.5,-35.0
37,-888.75,-108.75,-67.5,-116.25,255,191.25,240,251.25,-27.083333333333332
38,-858.75,-127.5,-75,-120,206.25,146.25,206.25,225,-44.166666666666664
39,-843.75,-146.25,-60,-112.5,168.75,112.5,183.75,210,-54.166666666666664
40,-817.5,-142.5,-26.25,-60,183.75,116.25,187.5,217.5,-37.916666666666664
41,-780,-120,11.25,3.75,217.5,138.75,206.25,232.5,-10.0
42,-750,-116.25,30,45,240,150,210,236.25,5.0
43,-708.75,-123.75,48.75,78.75,255,157.5,210,228.75,16.25
44,-705,-116.25,97.5,138.75,292.5,180,225,232.5,38.333333333333336
45,-746.25,-75,165,213.75,356.25,225,262.5,266.25,74.16666666666667
46,-757.5,-60,195,240,371.25,232.5,266.25,270,84.16666666666667
47,-708.75,-78.75,195,232.5,348.75,206.25,240,240,75.0
48,-660,-97.5,187.5,225,330,183.75,213.75,217.5,66.66666666666667
49,-648.75,-116.25,191.25,232.5,330,176.25,210,213.75,65.41666666666667
50,-671.25,-131.25,195,232.5,326.25,172.5,206.25,213.75,60.416666666666664
51,-690,-142.5,198.75,228.75,318.75,165,198.75,206.25,53.75
52,-697.5,-161.25,198.75,217.5,300,150,183.75,191.25,42.5
53,-690,-176.25,191.25,210,288.75,138.75,172.5,183.75,35.416666666666664
54,-697.5,-187.5,187.5,206.25,281.25,127.5,165,172.5,28.333333333333332
55,-697.5,-191.25,191.25,202.5,277.5,123.75,157.5,165,25.416666666666668
56,-693.75,-191.25,187.5,191.25,262.5,108.75,146.25,153.75,18.333333333333332
57,-716.25,-195,187.5,187.5,258.75,105,142.5,153.75,13.75
58,-708.75,-183.75,191.25,191.25,258.75,105,142.5,150,16.25
59,-690,-172.5,195,198.75,266.25,108.75,146.25,153.75,22.916666666666668
60,-701.25,-157.5,206.25,213.75,273.75,120,157.5,168.75,31.25
61,-675,-142.5,195,210,266.25,108.75,150,165,30.833333333333332
62,-656.25,-157.5,187.5,202.5,262.5,105,146.25,157.5,27.5
63,-697.5,-187.5,202.5,210,273.75,112.5,153.75,165,25.833333333333332
64,-701.25,-195,210,213.75,273.75,116.25,153.75,168.75,26.666666666666668
65,-682.5,-187.5,191.25,210,266.25,108.75,146.25,161.25,23.75
66,-678.75,-187.5,183.75,198.75,258.75,101.25,142.5,157.5,19.583333333333332
67,-663.75,-180,187.5,195,255,101.25,142.5,153.75,21.25
68,-648.75,-161.25,191.25,198.75,255,101.25,142.5,157.5,26.25
69,-667.5,-153.75,202.5,202.5,255,108.75,153.75,165,29.583333333333332
70,-686.25,-165,206.25,210,266.25,112.5,157.5,168.75,30.0
71,-678.75,-176.25,202.5,221.25,281.25,120,161.25,172.5,33.75
72,-678.75,-168.75,206.25,228.75,281.25,120,165,180,37.083333333333336
73,-667.5,-161.25,210,228.75,273.75,116.25,161.25,180,37.916666666666664
74,-652.5,-168.75,195,213.75,266.25,108.75,153.75,165,31.25
75,-648.75,-168.75,183.75,206.25,266.25,105,150,157.5,27.916666666666668
76,-645,-157.5,195,221.25,277.5,120,161.25,172.5,38.333333333333336
77,-633.75,-150,191.25,210,262.5,112.5,157.5,172.5,35.833333333333336
78,-648.75,-168.75,183.75,206.25,258.75,108.75,153.75,168.75,29.166666666666668
79,-656.25,-191.25,183.75,213.75,266.25,112.5,153.75,165,27.5
80,-656.25,-195,191.25,217.5,266.25,116.25,157.5,168.75,29.583333333333332
81,-663.75,-176.25,202.5,228.75,281.25,123.75,168.75,176.25,37.916666666666664
82,-652.5,-161.25,202.5,236.25,288.75,127.5,172.5,176.25,43.333333333333336
83,-637.5,-146.25,202.5,240,288.75,131.25,172.5,180,47.916666666666664
84,-633.75,-127.5,206.25,247.5,296.25,135,180,187.5,54.583333333333336
85,-626.25,-131.25,198.75,243.75,288.75,127.5,172.5,180,50.416666666666664
86,-618.75,-146.25,187.5,232.5,281.25,123.75,168.75,176.25,45.0
87,-626.25,-150,191.25,236.25,288.75,131.25,176.25,183.75,47.916666666666664
88,-641.25,-157.5,187.5,240,292.5,131.25,176.25,187.5,46.25
89,-660,-150,187.5,243.75,296.25,135,180,191.25,47.083333333333336
90,-667.5,-146.25,191.25,247.5,300,142.5,187.5,195,50.0
91,-648.75,-157.5,183.75,236.25,288.75,135,176.25,183.75,44.166666666666664
92,-615,-153.75,172.5,228.75,285,123.75,168.75,168.75,42.083333333333336
93,-615,-150,180,236.25,292.5,131.25,176.25,180,47.916666666666664
94,-660,-153.75,191.25,247.5,303.75,142.5,183.75,187.5,49.166666666666664
95,-667.5,-142.5,202.5,258.75,311.25,150,191.25,195,55.416666666666664
96,-600,-123.75,195,255,296.25,142.5,187.5,191.25,60.416666666666664
97,-551.25,-116.25,183.75,251.25,292.5,138.75,187.5,191.25,64.16666666666667
98,-570,-135,176.25,251.25,303.75,138.75,183.75,191.25,60.0
99,-607.5,-146.25,176.25,255,307.5,146.25,191.25,198.75,57.916666666666664
100,-618.75,-127.5,176.25,255,307.5,150,195,198.75,59.583333333333336
101,-615,-108.75,183.75,262.5,315,157.5,202.5,206.25,67.08333333333333
102,-607.5,-123.75,183.75,258.75,315,157.5,202.5,210,66.25
103,-588.75,-135,165,240,296.25,142.5,187.5,195,55.833333333333336
104,-588.75,-123.75,168.75,243.75,300,146.25,191.25,195,59.166666666666664
105,-585,-112.5,183.75,258.75,318.75,157.5,202.5,206.25,70.0
106,-573.75,-116.25,180,255,307.5,150,198.75,198.75,66.66666666666667
107,-566.25,-116.25,168.75,251.25,300,142.5,191.25,195,62.916666666666664
108,-577.5,-105,180,270,318.75,157.5,206.25,210,73.33333333333333
109,-577.5,-112.5,176.25,266.25,318.75,157.5,206.25,210,71.66666666666667
110,-573.75,-120,165,255,307.5,150,198.75,206.25,65.41666666666667
111,-573.75,-112.5,168.75,258.75,311.25,157.5,206.25,213.75,70.0
112,-566.25,-108.75,172.5,258.75,311.25,157.5,206.25,213.75,71.66666666666667
113,-566.25,-112.5,168.75,255,307.5,153.75,202.5,210,68.75
114,-573.75,-112.5,165,247.5,300,150,198.75,206.25,64.58333333333333
115,-592.5,-116.25,165,240,296.25,146.25,198.75,202.5,60.0
116,-585,-116.25,161.25,236.25,292.5,138.75,191.25,195,57.083333333333336
117,-562.5,-108.75,157.5,236.25,288.75,138.75,191.25,195,59.583333333333336
118,-562.5,-105,157.5,240,288.75,138.75,191.25,195,60.416666666666664
119,-570,-101.25,157.5,236.25,285,135,191.25,195,58.75
120,-547.5,-82.5,172.5,251.25,288.75,142.5,202.5,210,70.83333333333333
121,-502.5,-75,168.75,255,292.5,146.25,206.25,217.5,78.75
122,-510,-97.5,157.5,255,300,146.25,206.25,217.5,75.0
123,-543.75,-108.75,165,243.75,292.5,142.5,202.5,213.75,67.5
124,-543.75,-97.5,172.5,243.75,288.75,142.5,202.5,217.5,69.58333333333333
125,-540,-90,165,243.75,288.75,142.5,206.25,217.5,70.41666666666667
126,-555,-93.75,153.75,232.5,277.5,131.25,198.75,210,61.666666666666664
127,-543.75,-90,150,217.5,262.5,120,187.5,202.5,56.25
128,-525,-86.25,146.25,210,255,116.25,183.75,195,55.0
129,-528.75,-101.25,146.25,213.75,255,116.25,183.75,195,53.333333333333336
130,-555,-123.75,157.5,217.5,258.75,120,187.5,202.5,51.666666666666664
131,-562.5,-116.25,168.75,225,262.5,123.75,198.75,210,56.666666666666664
132,-536.25,-82.5,165,225,262.5,123.75,198.75,213.75,63.333333333333336
133,-510,-67.5,146.25,202.5,236.25,105,180,202.5,55.0
134,-513.75,-75,142.5,198.75,228.75,101.25,180,198.75,51.25
135,-528.75,-93.75,146.25,206.25,243.75,112.5,191.25,210,54.166666666666664
136,-547.5,-112.5,157.5,210,247.5,112.5,191.25,217.5,52.916666666666664
137,-547.5,-108.75,157.5,202.5,236.25,105,187.5,213.75,49.583333333333336
138,-525,-97.5,150,187.5,221.25,97.5,176.25,206.25,46.25
139,-510,-90,142.5,176.25,206.25,86.25,165,191.25,40.833333333333336
140,-517.5,-93.75,142.5,168.75,195,78.75,161.25,187.5,35.833333333333336
141,-532.5,-97.5,150,183.75,213.75,90,172.5,198.75,42.083333333333336
142,-528.75,-97.5,150,187.5,213.75,90,172.5,202.5,43.333333333333336
143,-528.75,-82.5,161.25,187.5,213.75,93.75,183.75,213.75,49.166666666666664
144,-513.75,-52.5,168.75,198.75,225,101.25,191.25,225,60.416666666666664
145,-487.5,-48.75,157.5,191.25,213.75,93.75,180,213.75,57.083333333333336
146,-506.25,-71.25,146.25,180,202.5,82.5,172.5,210,46.25
147,-543.75,-86.25,157.5,180,202.5,86.25,176.25,213.75,42.916666666666664
148,-525,-86.25,153.75,180,198.75,82.5,172.5,210,42.916666666666664
149,-502.5,-86.25,150,172.5,191.25,71.25,165,202.5,40.416666666666664
150,-498.75,-86.25,150,168.75,187.5,67.5,161.25,198.75,38.75
151,-506.25,-86.25,146.25,161.25,180,63.75,153.75,191.25,33.75
152,-521.25,-71.25,150,161.25,180,60,150,191.25,33.333333333333336
153,-543.75,-63.75,161.25,172.5,187.5,71.25,161.25,198.75,38.333333333333336
154,-551.25,-71.25,172.5,183.75,195,75,165,202.5,41.25
155,-540,-78.75,180,183.75,191.25,71.25,161.25,198.75,40.833333333333336
156,-536.25,-75,165,183.75,187.5,63.75,153.75,191.25,37.083333333333336
157,-536.25,-60,161.25,191.25,195,67.5,157.5,195,41.25
158,-536.25,-52.5,180,198.75,202.5,78.75,168.75,202.5,49.166666666666664
159,-528.75,-52.5,183.75,202.5,210,86.25,172.5,206.25,53.333333333333336
160,-540,-71.25,183.75,206.25,206.25,82.5,165,202.5,48.333333333333336
161,-547.5,-90,176.25,191.25,191.25,67.5,150,187.5,36.25
162,-543.75,-101.25,176.25,191.25,195,63.75,146.25,180,34.166666666666664
163,-547.5,-108.75,183.75,198.75,206.25,71.25,150,180,37.083333333333336
164,-555,-112.5,198.75,210,210,78.75,157.5,180,40.833333333333336
165,-585,-123.75,210,221.25,221.25,90,168.75,187.5,43.333333333333336
166,-588.75,-116.25,213.75,221.25,221.25,86.25,161.25,183.75,42.5
167,-562.5,-101.25,213.75,225,225,82.5,153.75,172.5,45.416666666666664
168,-558.75,-82.5,217.5,236.25,236.25,90,157.5,176.25,52.5
169,-581.25,-78.75,225,236.25,240,90,161.25,180,52.5
170,-603.75,-112.5,217.5,228.75,228.75,86.25,153.75,172.5,41.25
171,-630,-142.5,210,225,228.75,82.5,146.25,165,31.666666666666668
172,-618.75,-131.25,213.75,225,236.25,86.25,146.25,165,35.833333333333336
173,-577.5,-116.25,217.5,221.25,232.5,82.5,142.5,157.5,40.0
174,-588.75,-131.25,217.5,221.25,225,82.5,142.5,153.75,35.833333333333336
175,-626.25,-150,221.25,217.5,217.5,78.75,138.75,150,27.5
176,-637.5,-157.5,217.5,213.75,221.25,71.25,135,142.5,22.916666666666668
177,-637.5,-157.5,221.25,221.25,232.5,75,131.25,138.75,25.0
178,-656.25,-157.5,236.25,228.75,240,82.5,138.75,146.25,28.75
179,-667.5,-153.75,236.25,232.5,240,82.5,142.5,142.5,28.333333333333332
180,-630,-123.75,232.5,236.25,240,78.75,135,138.75,34.166666666666664
181,-603.75,-101.25,228.75,236.25,236.25,75,131.25,138.75,37.916666666666664
182,-615,-127.5,225,221.25,228.75,67.5,123.75,131.25,28.333333333333332
183,-648.75,-157.5,217.5,210,221.25,63.75,120,123.75,16.666666666666668
184,-705,-161.25,240,228.75,236.25,78.75,135,142.5,21.666666666666668
185,-712.5,-165,243.75,225,228.75,75,131.25,138.75,18.333333333333332
186,-660,-176.25,225,202.5,210,56.25,112.5,116.25,9.583333333333334
187,-641.25,-180,217.5,195,213.75,56.25,108.75,112.5,9.166666666666666
188,-663.75,-191.25,221.25,195,213.75,56.25,108.75,112.5,5.833333333333333
189,-686.25,-191.25,228.75,202.5,217.5,60,112.5,112.5,6.25
190,-663.75,-157.5,236.25,210,228.75,67.5,120,120,17.916666666666668
191,-652.5,-150,236.25,210,225,63.75,120,116.25,18.75
192,-667.5,-168.75,236.25,210,221.25,60,116.25,116.25,13.75
193,-675,-180,232.5,213.75,225,56.25,112.5,112.5,10.833333333333334
194,-671.25,-187.5,221.25,202.5,217.5,48.75,101.25,105,4.166666666666667
195,-667.5,-183.75,217.5,198.75,213.75,48.75,101.25,105,3.75
196,-671.25,-180,221.25,198.75,217.5,52.5,108.75,112.5,6.666666666666667
197,-678.75,-191.25,225,198.75,217.5,52.5,108.75,112.5,5.0
198,-682.5,-198.75,217.5,191.25,213.75,45,101.25,105,-0.8333333333333334
199,-682.5,-202.5,210,180,202.5,37.5,93.75,93.75,-7.5
200,-686.25,-195,221.25,183.75,206.25,45,97.5,97.5,-3.3333333333333335
201,-697.5,-191.25,232.5,202.5,221.25,56.25,108.75,108.75,4.583333333333333
202,-697.5,-195,225,202.5,221.25,48.75,101.25,101.25,0.8333333333333334
203,-682.5,-183.75,225,198.75,217.5,48.75,101.25,101.25,2.9166666666666665
204,-652.5,-165,228.75,206.25,221.25,52.5,108.75,108.75,12.083333333333334
205,-637.5,-157.5,228.75,210,225,52.5,108.75,108.75,15.416666666666666
206,-656.25,-168.75,217.5,198.75,217.5,45,101.25,97.5,5.833333333333333
207,-667.5,-176.25,221.25,202.5,221.25,48.75,101.25,101.25,5.833333333333333
208,-652.5,-172.5,217.5,191.25,206.25,41.25,97.5,97.5,2.9166666666666665
209,-645,-176.25,206.25,172.5,183.75,30,86.25,93.75,-5.416666666666667
210,-667.5,-195,202.5,180,206.25,37.5,93.75,93.75,-5.416666666666667
211,-705,-202.5,225,202.5,236.25,63.75,116.25,112.5,5.416666666666667
212,-705,-198.75,236.25,206.25,232.5,63.75,116.25,112.5,7.083333333333333
213,-675,-198.75,221.25,191.25,213.75,48.75,101.25,97.5,0.0
214,-671.25,-202.5,217.5,187.5,206.25,41.25,97.5,93.75,-3.3333333333333335
215,-697.5,-191.25,228.75,202.5,221.25,52.5,108.75,101.25,2.9166666666666665
216,-686.25,-157.5,228.75,210,228.75,56.25,112.5,108.75,11.25
217,-660,-161.25,221.25,206.25,221.25,48.75,105,101.25,9.166666666666666
218,-667.5,-195,210,191.25,210,37.5,93.75,90,-3.3333333333333335
219,-678.75,-202.5,210,191.25,210,41.25,97.5,90,-4.583333333333333
220,-671.25,-191.25,217.5,195,213.75,45,97.5,93.75,0.0
221,-671.25,-180,225,206.25,225,52.5,108.75,105,7.916666666666667
222,-660,-183.75,221.25,202.5,225,56.25,108.75,108.75,8.75
223,-645,-195,210,187.5,210,45,97.5,93.75,0.4166666666666667
224,-660,-198.75,213.75,187.5,210,45,97.5,93.75,-1.25
225,-690,-195,217.5,195,213.75,48.75,101.25,93.75,-1.6666666666666667
226,-705,-195,221.25,195,217.5,48.75,101.25,93.75,-2.5
227,-690,-176.25,225,195,217.5,48.75,101.25,93.75,1.6666666666666667
228,-667.5,-150,225,202.5,221.25,52.5,105,101.25,10.0
229,-686.25,-172.5,221.25,210,228.75,56.25,108.75,101.25,7.5
230,-690,-198.75,210,191.25,210,45,97.5,90,-5.0
231,-656.25,-202.5,191.25,161.25,172.5,15,75,71.25,-19.166666666666668
232,-667.5,-202.5,195,168.75,180,18.75,75,75,-17.5
233,-708.75,-217.5,198.75,183.75,206.25,33.75,86.25,82.5,-15.0
234,-675,-213.75,206.25,187.5,210,37.5,90,86.25,-7.916666666666667
235,-630,-176.25,210,183.75,206.25,41.25,97.5,90,2.5
236,-660,-172.5,217.5,195,217.5,52.5,108.75,101.25,6.666666666666667
237,-678.75,-195,213.75,195,217.5,48.75,101.25,93.75,-0.4166666666666667
238,-667.5,-198.75,213.75,187.5,210,45,97.5,86.25,-2.9166666666666665
239,-686.25,-195,221.25,191.25,213.75,48.75,105,93.75,-0.8333333333333334
240,-697.5,-198.75,225,206.25,228.75,60,108.75,101.25,3.75
241,-675,-206.25,213.75,202.5,221.25,48.75,105,97.5,0.8333333333333334
242,-660,-210,191.25,183.75,202.5,37.5,90,86.25,-8.75
243,-660,-198.75,195,180,202.5,41.25,93.75,90,-6.25
244,-663.75,-180,213.75,187.5,213.75,48.75,101.25,93.75,1.6666666666666667
245,-663.75,-183.75,210,183.75,210,45,97.5,90,-1.25
246,-667.5,-206.25,195,176.25,198.75,33.75,86.25,78.75,-11.666666666666666
247,-671.25,-225,187.5,165,191.25,22.5,75,71.25,-20.416666666666668
248,-667.5,-221.25,198.75,168.75,191.25,26.25,82.5,75,-16.25
249,-701.25,-210,210,180,202.5,37.5,90,82.5,-12.083333333333334
250,-727.5,-206.25,210,180,198.75,37.5,93.75,82.5,-14.583333333333334
251,-693.75,-195,206.25,180,198.75,33.75,90,78.75,-11.25
252,-645,-180,206.25,187.5,210,41.25,97.5,86.25,0.4166666666666667
253,-648.75,-183.75,210,191.25,210,45,101.25,93.75,2.0833333333333335
254,-656.25,-180,210,187.5,198.75,41.25,93.75,90,-1.6666666666666667
255,-648.75,-172.5,206.25,183.75,202.5,41.25,93.75,90,-0.4166666666666667
256,-648.75,-176.25,202.5,183.75,206.25,41.25,93.75,90,-0.8333333333333334
257,-656.25,-187.5,210,187.5,210,48.75,101.25,97.5,1.25
258,-667.5,-202.5,210,187.5,210,45,101.25,90,-2.9166666666666665
259,-663.75,-206.25,210,176.25,198.75,37.5,93.75,82.5,-7.916666666666667
260,-671.25,-198.75,221.25,183.75,202.5,45,101.25,90,-2.9166666666666665
261,-675,-180,236.25,202.5,225,60,116.25,101.25,9.583333333333334
262,-675,-165,232.5,198.75,221.25,56.25,108.75,93.75,7.916666666666667
263,-667.5,-161.25,228.75,191.25,210,45,101.25,86.25,3.75
264,-645,-142.5,243.75,210,225,60,112.5,101.25,18.333333333333332
265,-641.25,-146.25,251.25,217.5,232.5,67.5,120,108.75,23.333333333333332
266,-648.75,-165,243.75,213.75,225,60,112.5,105,16.25
267,-645,-161.25,236.25,213.75,221.25,56.25,105,97.5,13.75
268,-633.75,-146.25,243.75,217.5,228.75,60,108.75,101.25,20.0
269,-667.5,-146.25,255,225,236.25,71.25,120,112.5,22.916666666666668
270,-697.5,-161.25,255,221.25,228.75,71.25,120,112.5,16.666666666666668
271,-667.5,-161.25,240,206.25,217.5,56.25,105,93.75,10.0
272,-637.5,-135,243.75,206.25,221.25,56.25,101.25,90,16.25
273,-641.25,-120,255,217.5,228.75,63.75,108.75,97.5,23.333333333333332
274,-663.75,-123.75,270,225,232.5,75,123.75,112.5,27.916666666666668
275,-652.5,-116.25,270,232.5,240,78.75,131.25,116.25,33.333333333333336
276,-641.25,-112.5,270,240,247.5,90,138.75,131.25,40.416666666666664
277,-648.75,-127.5,266.25,236.25,251.25,90,146.25,142.5,39.583333333333336
278,-645,-142.5,251.25,225,243.75,82.5,138.75,135,32.083333333333336
279,-645,-135,225,210,228.75,71.25,123.75,123.75,22.5
280,-630,-116.25,210,198.75,225,67.5,123.75,120,22.083333333333332
281,-615,-120,198.75,195,221.25,71.25,127.5,127.5,22.916666666666668
282,-626.25,-142.5,187.5,187.5,213.75,67.5,123.75,123.75,15.0
283,-626.25,-153.75,176.25,180,206.25,63.75,120,116.25,9.166666666666666
284,-615,-150,168.75,176.25,206.25,63.75,120,116.25,9.583333333333334
285,-600,-146.25,161.25,172.5,206.25,60,116.25,112.5,9.166666666666666
286,-607.5,-150,161.25,165,198.75,52.5,108.75,108.75,4.166666666666667
287,-645,-150,165,168.75,202.5,52.5,112.5,112.5,2.0833333333333335
288,-656.25,-153.75,168.75,176.25,206.25,56.25,116.25,120,3.75
289,-641.25,-176.25,153.75,153.75,183.75,41.25,101.25,105,-8.75
290,-622.5,-180,142.5,142.5,168.75,30,90,97.5,-14.583333333333334
291,-603.75,-153.75,157.5,157.5,187.5,41.25,97.5,105,-1.25
292,-588.75,-135,176.25,168.75,198.75,52.5,108.75,112.5,10.416666666666666
293,-607.5,-150,165,157.5,187.5,45,105,108.75,1.25
294,-637.5,-172.5,165,150,180,37.5,97.5,105,-8.333333333333334
295,-656.25,-180,172.5,146.25,176.25,37.5,97.5,101.25,-11.666666666666666
296,-667.5,-183.75,172.5,150,183.75,37.5,93.75,93.75,-13.333333333333334
297,-656.25,-187.5,168.75,142.5,176.25,22.5,78.75,78.75,-19.583333333333332
298,-656.25,-187.5,161.25,131.25,161.25,11.25,67.5,67.5,-27.083333333333332
299,-660,-168.75,161.25,138.75,165,15,71.25,71.25,-22.916666666666668
300,-633.75,-138.75,172.5,146.25,172.5,22.5,78.75,78.75,-11.25
301,-615,-157.5,168.75,138.75,161.25,11.25,63.75,71.25,-17.5
302,-648.75,-210,153.75,120,138.75,-7.5,48.75,56.25,-38.75
303,-693.75,-236.25,161.25,120,146.25,0,56.25,60,-42.916666666666664
304,-705,-255,168.75,131.25,157.5,11.25,67.5,71.25,-39.166666666666664
305,-675,-255,161.25,116.25,142.5,-3.75,52.5,56.25,-45.0
306,-656.25,-240,153.75,105,127.5,-15,45,48.75,-47.916666666666664
307,-686.25,-251.25,157.5,101.25,131.25,-15,45,48.75,-52.083333333333336
308,-708.75,-273.75,153.75,97.5,123.75,-22.5,37.5,37.5,-61.666666666666664
309,-708.75,-273.75,150,93.75,112.5,-26.25,30,30,-65.83333333333333
310,-720,-251.25,153.75,97.5,120,-22.5,33.75,41.25,-60.833333333333336
311,-716.25,-232.5,157.5,105,131.25,-15,41.25,45,-53.75
312,-690,-225,157.5,108.75,135,-15,41.25,45,-49.166666666666664
313,-697.5,-240,157.5,108.75,127.5,-18.75,37.5,45,-53.333333333333336
314,-705,-251.25,150,101.25,120,-26.25,37.5,45,-58.75
315,-678.75,-240,142.5,101.25,123.75,-26.25,33.75,41.25,-55.833333333333336
316,-667.5,-236.25,150,108.75,135,-18.75,41.25,48.75,-48.75
317,-667.5,-258.75,153.75,105,131.25,-18.75,41.25,48.75,-51.666666666666664
318,-663.75,-270,142.5,97.5,120,-26.25,33.75,41.25,-58.333333333333336
319,-675,-255,131.25,82.5,108.75,-37.5,22.5,30,-65.83333333333333
320,-708.75,-258.75,138.75,82.5,108.75,-37.5,22.5,30,-69.16666666666667
321,-723.75,-262.5,146.25,90,116.25,-33.75,26.25,30,-67.91666666666667
322,-708.75,-251.25,157.5,97.5,120,-26.25,33.75,37.5,-60.0
323,-705,-251.25,161.25,108.75,127.5,-22.5,37.5,41.25,-55.833333333333336
324,-712.5,-251.25,165,116.25,138.75,-15,45,48.75,-51.666666666666664
325,-690,-240,165,123.75,142.5,-11.25,48.75,52.5,-45.416666666666664
326,-678.75,-243.75,161.25,116.25,135,-15,48.75,52.5,-47.083333333333336
327,-690,-258.75,157.5,112.5,131.25,-18.75,41.25,45,-53.333333333333336
328,-678.75,-273.75,161.25,112.5,127.5,-33.75,26.25,30,-58.75
329,-667.5,-296.25,176.25,112.5,108.75,-56.25,0,3.75,-68.75
330,-697.5,-315,217.5,138.75,101.25,-75,-22.5,-22.5,-75.0
331,-746.25,-322.5,262.5,176.25,101.25,-101.25,-56.25,-60,-82.91666666666667
332,-738.75,-352.5,303.75,198.75,82.5,-138.75,-105,-105,-95.0
333,-705,-397.5,333.75,213.75,63.75,-176.25,-146.25,-146.25,-106.66666666666667
334,-697.5,-393.75,375,262.5,86.25,-168.75,-138.75,-138.75,-90.41666666666667
335,-686.25,-337.5,423.75,337.5,146.25,-123.75,-101.25,-105,-49.583333333333336
336,-637.5,-258.75,453.75,405,195,-86.25,-67.5,-75,-7.916666666666667
337,-596.25,-202.5,472.5,468.75,255,-33.75,-22.5,-33.75,34.166666666666664
338,-570,-183.75,483.75,525,315,26.25,37.5,22.5,72.91666666666667
339,-506.25,-146.25,495,570,375,93.75,105,86.25,119.16666666666667
340,-420,-41.25,495,611.25,442.5,180,195,176.25,182.08333333333334
341,-360,86.25,491.25,675,532.5,285,303.75,277.5,254.58333333333334
342,-318.75,191.25,487.5,738.75,633.75,401.25,420,390,327.0833333333333
343,-232.5,318.75,461.25,753.75,712.5,521.25,551.25,513.75,400.0
344,-131.25,480,405,742.5,787.5,648.75,693.75,656.25,475.8333333333333
345,-112.5,652.5,382.5,795,918.75,813.75,866.25,825,571.25
346,-108.75,832.5,360,847.5,1046.25,978.75,1042.5,993.75,665.8333333333334
347,-52.5,1053.75,288.75,828.75,1136.25,1143.75,1233.75,1192.5,758.3333333333334
348,-7.5,1252.5,180,795,1226.25,1312.5,1436.25,1402.5,844.1666666666666
349,18.75,1338.75,52.5,738.75,1297.5,1440,1582.5,1545,890.4166666666666
350,22.5,1372.5,-52.5,633.75,1327.5,1537.5,1687.5,1638.75,907.5
351,-26.25,1361.25,-93.75,566.25,1365,1627.5,1773.75,1698.75,919.1666666666666
352,-101.25,1293.75,-63.75,600,1451.25,1710,1826.25,1706.25,935.8333333333334
353,-187.5,1218.75,-78.75,566.25,1481.25,1736.25,1826.25,1676.25,915.4166666666666
354,-281.25,1158.75,-123.75,438.75,1432.5,1706.25,1788.75,1631.25,861.25
355,-352.5,1050,-142.5,315,1338.75,1601.25,1672.5,1511.25,777.0833333333334
356,-431.25,873.75,-127.5,206.25,1188.75,1398.75,1458.75,1305,652.5
357,-543.75,690,-105,101.25,982.5,1136.25,1203.75,1087.5,505.8333333333333
358,-648.75,517.5,-112.5,-41.25,716.25,832.5,922.5,862.5,338.75
359,-750,371.25,-123.75,-191.25,457.5,540,656.25,648.75,178.75
360,-817.5,251.25,-142.5,-318.75,240,296.25,435,457.5,44.583333333333336
361,-840,131.25,-142.5,-360,123.75,142.5,266.25,296.25,-42.5
362,-855,-3.75,-135,-333.75,93.75,71.25,161.25,180,-91.25
363,-870,-97.5,-135,-300,97.5,56.25,131.25,135,-109.16666666666667
364,-840,-112.5,-138.75,-243.75,127.5,78.75,142.5,135,-94.58333333333333
365,-806.25,-112.5,-127.5,-191.25,146.25,97.5,165,150,-75.41666666666667
366,-802.5,-135,-105,-168.75,127.5,82.5,157.5,150,-77.08333333333333
367,-780,-157.5,-97.5,-150,101.25,52.5,135,135,-84.58333333333333
368,-746.25,-165,-82.5,-127.5,86.25,33.75,116.25,123.75,-84.58333333333333
369,-731.25,-150,-45,-75,105,41.25,127.5,131.25,-66.25
370,-712.5,-120,3.75,7.5,165,82.5,157.5,161.25,-28.333333333333332
371,-678.75,-101.25,33.75,67.5,202.5,105,172.5,168.75,-3.3333333333333335
372,-645,-82.5,71.25,123.75,240,123.75,187.5,176.25,21.666666666666668
373,-622.5,-78.75,108.75,165,262.5,135,191.25,176.25,37.5
374,-622.5,-101.25,123.75,176.25,258.75,123.75,176.25,161.25,32.916666666666664
375,-633.75,-127.5,135,176.25,251.25,116.25,165,150,25.833333333333332
376,-626.25,-135,146.25,187.5,255,116.25,161.25,150,28.333333333333332
377,-607.5,-142.5,150,187.5,251.25,108.75,153.75,142.5,27.083333333333332
378,-607.5,-157.5,146.25,176.25,232.5,90,138.75,127.5,16.25
379,-637.5,-168.75,142.5,161.25,213.75,71.25,116.25,105,0.4166666666666667
380,-682.5,-168.75,157.5,172.5,221.25,75,120,108.75,0.4166666666666667
381,-671.25,-150,168.75,180,225,82.5,127.5,116.25,8.75
382,-633.75,-146.25,161.25,168.75,210,67.5,116.25,101.25,5.0
383,-630,-153.75,157.5,168.75,206.25,56.25,108.75,93.75,0.8333333333333334
384,-626.25,-150,161.25,172.5,202.5,56.25,105,97.5,2.0833333333333335
385,-626.25,-150,165,176.25,202.5,48.75,101.25,93.75,1.25
386,-626.25,-165,165,176.25,198.75,48.75,97.5,93.75,-1.25
387,-618.75,-183.75,161.25,168.75,191.25,45,101.25,93.75,-4.583333333333333
388,-618.75,-187.5,165,172.5,191.25,48.75,105,101.25,-2.5
389,-615,-191.25,168.75,180,198.75,52.5,105,101.25,0.0
390,-626.25,-198.75,168.75,176.25,198.75,48.75,101.25,97.5,-3.75
391,-645,-202.5,161.25,165,183.75,37.5,90,86.25,-13.75
392,-641.25,-195,157.5,161.25,180,33.75,86.25,78.75,-15.416666666666666
393,-622.5,-187.5,157.5,161.25,183.75,37.5,90,82.5,-10.833333333333334
394,-615,-183.75,165,168.75,187.5,41.25,93.75,82.5,-6.666666666666667
395,-618.75,-180,165,176.25,187.5,41.25,97.5,86.25,-5.0
396,-596.25,-153.75,165,176.25,187.5,37.5,97.5,86.25,0.0
397,-573.75,-131.25,157.5,172.5,183.75,33.75,90,82.5,1.6666666666666667
398,-592.5,-131.25,157.5,180,187.5,41.25,97.5,90,3.3333333333333335
399,-611.25,-138.75,168.75,187.5,198.75,52.5,108.75,101.25,7.5
400,-600,-153.75,172.5,187.5,202.5,52.5,112.5,105,8.75
401,-562.5,-172.5,157.5,176.25,187.5,41.25,101.25,90,2.0833333333333335
402,-562.5,-172.5,157.5,180,187.5,41.25,101.25,90,2.5
403,-615,-165,168.75,187.5,202.5,52.5,112.5,105,5.416666666666667
404,-645,-161.25,176.25,191.25,202.5,60,116.25,108.75,5.416666666666667
405,-626.25,-172.5,168.75,187.5,195,52.5,108.75,97.5,1.25
406,-585,-176.25,153.75,180,191.25,45,97.5,86.25,-0.8333333333333334
407,-562.5,-168.75,157.5,187.5,198.75,52.5,105,93.75,7.083333333333333
408,-547.5,-142.5,172.5,206.25,213.75,63.75,120,108.75,21.666666666666668
409,-540,-120,168.75,206.25,213.75,63.75,120,108.75,24.583333333333332
410,-547.5,-127.5,161.25,202.5,210,63.75,120,108.75,21.25
411,-558.75,-146.25,161.25,202.5,213.75,67.5,123.75,112.5,19.583333333333332
412,-566.25,-157.5,161.25,202.5,213.75,67.5,123.75,112.5,17.5
413,-581.25,-157.5,161.25,206.25,210,67.5,123.75,112.5,15.833333333333334
414,-573.75,-146.25,161.25,202.5,210,67.5,123.75,116.25,17.916666666666668
415,-551.25,-142.5,153.75,195,202.5,60,120,108.75,16.25
416,-558.75,-150,150,195,210,63.75,116.25,108.75,15.0
417,-570,-150,150,198.75,210,63.75,120,105,14.166666666666666
418,-570,-146.25,153.75,206.25,213.75,67.5,123.75,112.5,17.916666666666668
419,-566.25,-135,165,221.25,225,78.75,138.75,123.75,27.916666666666668
420,-536.25,-116.25,172.5,228.75,232.5,90,146.25,135,39.166666666666664
421,-517.5,-120,161.25,228.75,225,86.25,142.5,131.25,37.5
422,-540,-138.75,157.5,221.25,221.25,82.5,138.75,127.5,30.0
423,-536.25,-131.25,153.75,221.25,228.75,86.25,142.5,131.25,32.916666666666664
424,-525,-120,157.5,228.75,232.5,90,146.25,138.75,38.75
425,-525,-127.5,157.5,217.5,221.25,82.5,142.5,135,33.75
426,-543.75,-135,157.5,217.5,225,86.25,142.5,135,31.666666666666668
427,-555,-127.5,165,228.75,236.25,97.5,153.75,142.5,37.916666666666664
428,-525,-116.25,150,217.5,228.75,86.25,142.5,131.25,35.0
429,-510,-93.75,138.75,210,217.5,75,131.25,116.25,31.666666666666668
430,-547.5,-101.25,150,221.25,228.75,86.25,142.5,127.5,34.166666666666664
431,-551.25,-123.75,165,240,247.5,101.25,157.5,142.5,42.083333333333336
432,-536.25,-127.5,165,247.5,251.25,105,165,150,46.666666666666664
433,-521.25,-116.25,153.75,240,243.75,97.5,153.75,142.5,43.75
434,-506.25,-120,142.5,228.75,232.5,90,146.25,135,38.75
435,-506.25,-116.25,146.25,236.25,243.75,101.25,157.5,150,45.833333333333336
436,-521.25,-112.5,150,236.25,243.75,105,165,157.5,47.083333333333336
437,-502.5,-108.75,150,228.75,236.25,101.25,161.25,150,46.25
438,-468.75,-105,146.25,228.75,232.5,97.5,157.5,146.25,48.333333333333336
439,-487.5,-105,135,225,232.5,97.5,157.5,146.25,44.583333333333336
440,-536.25,-105,153.75,236.25,247.5,112.5,172.5,161.25,49.166666666666664
441,-536.25,-105,153.75,236.25,243.75,108.75,172.5,161.25,48.333333333333336
442,-502.5,-105,138.75,221.25,228.75,93.75,157.5,142.5,41.666666666666664
443,-487.5,-97.5,135,221.25,228.75,93.75,157.5,142.5,43.75
444,-472.5,-75,146.25,240,243.75,105,168.75,157.5,57.083333333333336
445,-461.25,-71.25,150,240,243.75,105,168.75,161.25,59.583333333333336
446,-468.75,-90,135,225,232.5,97.5,165,153.75,50.0
447,-480,-97.5,135,225,225,93.75,165,157.5,47.083333333333336
448,-487.5,-86.25,138.75,213.75,213.75,90,165,157.5,45.0
449,-483.75,-63.75,127.5,206.25,206.25,82.5,157.5,150,42.5
450,-480,-63.75,116.25,198.75,198.75,75,150,146.25,37.916666666666664
451,-483.75,-86.25,116.25,195,198.75,75,150,142.5,34.166666666666664
452,-483.75,-108.75,120,195,202.5,75,150,142.5,32.5
453,-472.5,-105,127.5,202.5,206.25,78.75,153.75,146.25,37.5
454,-476.25,-97.5,131.25,206.25,198.75,78.75,157.5,153.75,39.166666666666664
455,-468.75,-82.5,142.5,206.25,187.5,78.75,165,161.25,43.333333333333336
456,-438.75,-48.75,150,221.25,213.75,90,172.5,168.75,58.75
457,-438.75,-30,135,217.5,213.75,82.5,165,161.25,56.25
458,-472.5,-52.5,116.25,195,187.5,63.75,146.25,150,37.083333333333336
459,-468.75,-78.75,112.5,183.75,176.25,56.25,146.25,146.25,30.416666666666668
460,-457.5,-90,116.25,183.75,180,60,150,153.75,32.916666666666664
461,-442.5,-90,123.75,187.5,176.25,60,153.75,157.5,36.25
462,-453.75,-97.5,127.5,183.75,172.5,60,153.75,161.25,34.166666666666664
463,-450,-97.5,123.75,172.5,165,56.25,150,153.75,30.416666666666668
464,-450,-86.25,127.5,172.5,165,52.5,150,157.5,32.083333333333336
465,-461.25,-75,131.25,172.5,165,52.5,150,157.5,32.5
466,-461.25,-63.75,135,172.5,161.25,52.5,150,157.5,33.75
467,-461.25,-63.75,135,172.5,157.5,52.5,153.75,161.25,34.166666666666664
468,-435,-56.25,135,172.5,157.5,48.75,150,161.25,37.083333333333336
469,-416.25,-48.75,127.5,168.75,150,41.25,146.25,157.5,36.25
470,-450,-63.75,120,157.5,138.75,30,138.75,153.75,25.0
471,-472.5,-78.75,123.75,157.5,142.5,33.75,142.5,157.5,22.916666666666668
472,-457.5,-71.25,120,150,135,26.25,138.75,153.75,21.666666666666668
473,-435,-56.25,116.25,138.75,120,18.75,127.5,146.25,19.583333333333332
474,-423.75,-63.75,112.5,131.25,112.5,11.25,120,142.5,15.833333333333334
475,-427.5,-78.75,112.5,127.5,108.75,3.75,120,138.75,11.666666666666666
476,-461.25,-82.5,123.75,135,120,11.25,127.5,142.5,12.916666666666666
477,-502.5,-67.5,138.75,146.25,131.25,26.25,138.75,153.75,18.333333333333332
478,-487.5,-52.5,138.75,150,127.5,22.5,135,153.75,20.833333333333332
479,-446.25,-48.75,127.5,138.75,116.25,7.5,123.75,138.75,17.5
480,-423.75,-45,135,138.75,116.25,7.5,123.75,138.75,21.25
481,-427.5,-48.75,142.5,153.75,127.5,18.75,135,150,27.916666666666668
482,-457.5,-56.25,142.5,157.5,135,22.5,135,153.75,25.833333333333332
483,-468.75,-60,142.5,150,127.5,15,127.5,146.25,20.0
484,-438.75,-48.75,138.75,146.25,120,7.5,123.75,138.75,20.833333333333332
485,-435,-41.25,150,157.5,135,22.5,131.25,150,30.0
486,-483.75,-67.5,153.75,157.5,135,22.5,131.25,146.25,21.666666666666668
487,-491.25,-82.5,153.75,153.75,127.5,11.25,123.75,131.25,14.166666666666666
488,-468.75,-71.25,161.25,161.25,131.25,15,123.75,127.5,20.0
489,-472.5,-63.75,161.25,165,135,18.75,123.75,127.5,21.666666666666668
490,-487.5,-63.75,180,172.5,138.75,26.25,127.5,131.25,25.0
491,-483.75,-60,191.25,187.5,153.75,30,131.25,131.25,31.25
492,-495,-56.25,191.25,198.75,168.75,37.5,135,135,35.0
493,-513.75,-60,198.75,206.25,172.5,37.5,135,131.25,34.166666666666664
494,-506.25,-75,202.5,198.75,165,30,123.75,123.75,29.166666666666668
495,-513.75,-90,195,198.75,165,30,127.5,123.75,26.25
496,-528.75,-97.5,198.75,202.5,168.75,33.75,123.75,123.75,25.0
497,-528.75,-116.25,202.5,202.5,168.75,33.75,123.75,120,22.916666666666668
498,-521.25,-123.75,206.25,210,176.25,41.25,127.5,120,26.25
499,-513.75,-116.25,210,206.25,172.5,37.5,123.75,112.5,25.833333333333332
500,-528.75,-123.75,202.5,195,161.25,26.25,112.5,101.25,16.25
501,-547.5,-131.25,198.75,195,165,22.5,108.75,97.5,12.083333333333334
502,-558.75,-123.75,206.25,206.25,176.25,30,116.25,101.25,17.083333333333332
503,-570,-127.5,217.5,210,180,37.5,120,105,19.166666666666668
504,-562.5,-123.75,217.5,210,176.25,33.75,116.25,101.25,18.75
505,-566.25,-131.25,213.75,210,176.25,30,112.5,101.25,16.25
506,-592.5,-153.75,210,206.25,176.25,26.25,108.75,93.75,8.333333333333334
507,-592.5,-150,206.25,198.75,168.75,22.5,101.25,86.25,4.583333333333333
508,-585,-123.75,221.25,210,176.25,30,108.75,93.75,14.583333333333334
509,-562.5,-97.5,228.75,217.5,183.75,37.5,116.25,101.25,25.0
510,-532.5,-97.5,221.25,202.5,176.25,30,105,90,21.666666666666668
511,-555,-120,210,187.5,168.75,15,93.75,71.25,7.916666666666667
512,-596.25,-142.5,206.25,180,157.5,7.5,82.5,60,-5.0
513,-600,-157.5,206.25,180,153.75,3.75,78.75,56.25,-8.75
514,-596.25,-165,213.75,183.75,161.25,7.5,82.5,60,-5.833333333333333
515,-600,-157.5,232.5,198.75,172.5,18.75,93.75,71.25,3.3333333333333335
516,-592.5,-146.25,236.25,195,165,18.75,93.75,71.25,4.583333333333333
517,-592.5,-161.25,225,187.5,157.5,7.5,82.5,63.75,-3.3333333333333335
518,-618.75,-172.5,217.5,183.75,157.5,3.75,78.75,60,-10.0
519,-618.75,-150,221.25,187.5,161.25,11.25,86.25,67.5,-3.75
520,-581.25,-138.75,217.5,176.25,150,3.75,82.5,63.75,-2.9166666666666665
521,-573.75,-157.5,202.5,165,142.5,-11.25,67.5,48.75,-12.916666666666666
522,-603.75,-172.5,202.5,165,146.25,-7.5,67.5,45,-17.5
523,-630,-172.5,210,165,146.25,-7.5,67.5,45,-19.583333333333332
524,-633.75,-161.25,206.25,157.5,138.75,-7.5,67.5,41.25,-21.25
525,-633.75,-161.25,206.25,161.25,142.5,-3.75,71.25,45,-19.166666666666668
526,-630,-168.75,217.5,172.5,157.5,7.5,82.5,52.5,-12.083333333333334
527,-630,-172.5,221.25,176.25,161.25,11.25,86.25,60,-9.583333333333334
528,-622.5,-172.5,225,183.75,161.25,15,90,63.75,-6.25
529,-603.75,-165,221.25,187.5,165,11.25,86.25,63.75,-3.75
530,-603.75,-168.75,213.75,176.25,157.5,3.75,78.75,56.25,-9.583333333333334
531,-603.75,-165,210,172.5,157.5,7.5,78.75,56.25,-9.583333333333334
532,-611.25,-165,210,176.25,157.5,7.5,82.5,60,-9.166666666666666
533,-615,-165,210,168.75,153.75,7.5,82.5,60,-10.833333333333334
534,-618.75,-168.75,213.75,161.25,146.25,11.25,86.25,63.75,-11.666666666666666
535,-611.25,-172.5,210,165,153.75,7.5,82.5,56.25,-12.083333333333334
536,-596.25,-168.75,206.25,168.75,165,7.5,82.5,52.5,-9.166666666666666
537,-592.5,-161.25,210,168.75,161.25,11.25,82.5,56.25,-7.083333333333333
538,-630,-153.75,221.25,172.5,165,15,90,56.25,-7.083333333333333
539,-633.75,-138.75,213.75,172.5,165,11.25,82.5,52.5,-8.333333333333334
540,-607.5,-138.75,213.75,176.25,165,11.25,78.75,52.5,-5.416666666666667
541,-603.75,-146.25,217.5,183.75,168.75,15,82.5,56.25,-2.9166666666666665
542,-596.25,-153.75,210,176.25,165,7.5,78.75,52.5,-6.666666666666667
543,-592.5,-157.5,198.75,168.75,157.5,0,67.5,41.25,-12.916666666666666
544,-611.25,-150,198.75,172.5,157.5,0,67.5,45,-13.333333333333334
545,-600,-142.5,206.25,176.25,161.25,7.5,75,52.5,-7.083333333333333
546,-566.25,-146.25,206.25,172.5,157.5,3.75,75,52.5,-5.0
547,-596.25,-165,198.75,168.75,157.5,3.75,75,48.75,-12.083333333333334
548,-645,-168.75,206.25,165,153.75,3.75,78.75,52.5,-17.083333333333332
549,-641.25,-161.25,206.25,168.75,157.5,3.75,78.75,48.75,-15.416666666666666
550,-600,-157.5,206.25,168.75,157.5,0,71.25,41.25,-12.5
551,-588.75,-161.25,202.5,165,153.75,0,71.25,37.5,-13.333333333333334
552,-603.75,-157.5,213.75,180,168.75,11.25,82.5,52.5,-5.833333333333333
553,-592.5,-161.25,210,183.75,168.75,11.25,82.5,56.25,-4.583333333333333
554,-581.25,-161.25,198.75,180,165,7.5,78.75,48.75,-7.083333333333333
555,-581.25,-142.5,206.25,176.25,165,11.25,82.5,56.25,-2.9166666666666665
556,-566.25,-146.25,210,168.75,153.75,3.75,78.75,52.5,-5.0
557,-555,-153.75,202.5,168.75,157.5,3.75,75,48.75,-5.833333333333333
558,-592.5,-146.25,198.75,172.5,165,7.5,78.75,52.5,-7.083333333333333
559,-648.75,-153.75,213.75,176.25,165,15,86.25,56.25,-10.0
560,-637.5,-165,206.25,172.5,161.25,7.5,82.5,52.5,-13.333333333333334
561,-588.75,-153.75,202.5,168.75,161.25,7.5,78.75,48.75,-8.333333333333334
562,-573.75,-150,202.5,165,153.75,3.75,78.75,45,-8.333333333333334
563,-585,-153.75,202.5,168.75,157.5,3.75,75,45,-9.583333333333334
564,-581.25,-123.75,217.5,180,168.75,15,86.25,56.25,2.0833333333333335
565,-592.5,-123.75,202.5,168.75,153.75,3.75,75,48.75,-7.083333333333333
566,-611.25,-157.5,187.5,153.75,142.5,-11.25,60,33.75,-22.5
567,-622.5,-180,198.75,168.75,157.5,0,75,45,-17.5
568,-596.25,-165,202.5,172.5,161.25,3.75,75,45,-11.25
569,-566.25,-142.5,198.75,168.75,157.5,0,71.25,41.25,-7.916666666666667
570,-592.5,-142.5,198.75,165,157.5,0,71.25,41.25,-11.25
571,-611.25,-150,198.75,157.5,150,-3.75,71.25,41.25,-16.25
572,-588.75,-146.25,191.25,146.25,146.25,-7.5,63.75,33.75,-17.916666666666668
573,-581.25,-142.5,195,153.75,150,-7.5,67.5,37.5,-14.166666666666666
574,-600,-161.25,198.75,165,157.5,0,78.75,45,-12.916666666666666
575,-592.5,-168.75,202.5,168.75,161.25,3.75,78.75,48.75,-10.833333333333334
576,-577.5,-161.25,210,168.75,165,7.5,82.5,52.5,-5.833333333333333
577,-581.25,-157.5,206.25,172.5,168.75,7.5,82.5,56.25,-5.0
578,-581.25,-161.25,195,168.75,161.25,3.75,78.75,48.75,-9.583333333333334
579,-573.75,-161.25,183.75,153.75,146.25,-7.5,67.5,41.25,-16.666666666666668
580,-551.25,-146.25,183.75,150,146.25,-11.25,67.5,37.5,-13.75
581,-555,-138.75,187.5,153.75,146.25,-11.25,67.5,37.5,-12.5
582,-573.75,-142.5,191.25,150,142.5,-11.25,67.5,37.5,-15.416666666666666
583,-596.25,-161.25,187.5,135,131.25,-15,63.75,33.75,-24.583333333333332
584,-626.25,-168.75,195,142.5,138.75,-11.25,67.5,37.5,-25.0
585,-603.75,-150,198.75,153.75,153.75,0,75,41.25,-14.583333333333334
586,-596.25,-138.75,206.25,165,157.5,3.75,78.75,48.75,-8.333333333333334
587,-607.5,-146.25,217.5,172.5,165,11.25,86.25,52.5,-5.416666666666667
588,-588.75,-135,210,172.5,165,11.25,82.5,52.5,-3.3333333333333335
589,-592.5,-123.75,217.5,180,165,11.25,86.25,56.25,0.0
590,-577.5,-116.25,221.25,176.25,161.25,7.5,82.5,56.25,1.25
591,-551.25,-97.5,221.25,176.25,161.25,11.25,86.25,56.25,7.083333333333333
592,-547.5,-86.25,228.75,183.75,172.5,18.75,90,60,13.333333333333334
593,-558.75,-93.75,232.5,187.5,176.25,22.5,93.75,63.75,13.75
594,-570,-105,232.5,183.75,172.5,15,90,60,8.75
595,-577.5,-116.25,232.5,176.25,161.25,7.5,82.5,52.5,2.0833333333333335
596,-570,-116.25,240,180,165,15,86.25,52.5,5.833333333333333
597,-543.75,-97.5,240,187.5,172.5,15,86.25,52.5,12.5
598,-543.75,-93.75,236.25,187.5,172.5,11.25,82.5,48.75,11.25
599,-562.5,-105,243.75,195,176.25,15,90,52.5,11.666666666666666
600,-562.5,-78.75,255,213.75,195,33.75,105,67.5,25.416666666666668
601,-555,-52.5,255,213.75,198.75,33.75,108.75,71.25,30.416666666666668
602,-547.5,-60,247.5,210,187.5,30,101.25,67.5,26.25
603,-558.75,-78.75,251.25,210,191.25,33.75,108.75,75,25.833333333333332
604,-555,-71.25,258.75,213.75,198.75,41.25,116.25,82.5,31.666666666666668
605,-536.25,-45,247.5,202.5,187.5,33.75,108.75,75,30.416666666666668
606,-536.25,-45,240,195,180,30,105,75,27.083333333333332
607,-551.25,-63.75,240,198.75,191.25,37.5,116.25,82.5,27.916666666666668
608,-562.5,-60,243.75,206.25,202.5,48.75,127.5,93.75,33.333333333333336
609,-547.5,-56.25,228.75,198.75,195,41.25,120,90,30.0
610,-510,-63.75,210,183.75,180,30,108.75,78.75,24.166666666666668
611,-502.5,-71.25,198.75,180,180,30,108.75,82.5,22.916666666666668
612,-513.75,-60,198.75,187.5,191.25,41.25,120,90,28.333333333333332
613,-513.75,-45,187.5,191.25,191.25,41.25,120,93.75,29.583333333333332
614,-510,-60,172.5,176.25,176.25,30,108.75,86.25,20.0
615,-495,-67.5,161.25,165,165,18.75,101.25,78.75,14.166666666666666
616,-495,-52.5,161.25,161.25,165,18.75,101.25,78.75,15.416666666666666
617,-517.5,-67.5,165,153.75,161.25,15,101.25,78.75,10.0
618,-532.5,-90,165,150,157.5,15,97.5,78.75,4.583333333333333
619,-525,-101.25,157.5,138.75,150,7.5,93.75,71.25,-0.8333333333333334
620,-513.75,-105,146.25,127.5,142.5,-3.75,82.5,60,-7.083333333333333
621,-510,-86.25,150,123.75,138.75,-7.5,78.75,56.25,-6.25
622,-521.25,-63.75,168.75,138.75,146.25,0,86.25,60,1.6666666666666667
623,-547.5,-75,180,146.25,153.75,7.5,90,67.5,2.5
624,-532.5,-93.75,191.25,153.75,153.75,7.5,93.75,71.25,5.0
625,-517.5,-123.75,195,161.25,161.25,11.25,97.5,75,6.666666666666667
626,-551.25,-150,180,146.25,146.25,-7.5,75,56.25,-11.666666666666666
627,-577.5,-150,168.75,127.5,131.25,-22.5,63.75,41.25,-24.166666666666668
628,-577.5,-135,180,142.5,146.25,-7.5,78.75,56.25,-12.916666666666666
629,-551.25,-112.5,187.5,150,153.75,0,86.25,63.75,-2.5
630,-521.25,-105,176.25,131.25,131.25,-18.75,67.5,41.25,-10.833333333333334
631,-525,-120,161.25,108.75,116.25,-33.75,48.75,22.5,-24.583333333333332
632,-547.5,-123.75,153.75,101.25,108.75,-45,41.25,15,-32.916666666666664
633,-573.75,-123.75,161.25,101.25,108.75,-45,41.25,15,-35.0
634,-611.25,-161.25,165,105,108.75,-45,41.25,11.25,-42.916666666666664
635,-600,-172.5,165,108.75,108.75,-45,41.25,11.25,-42.5
636,-581.25,-150,172.5,112.5,112.5,-41.25,45,15,-35.0
637,-596.25,-161.25,165,108.75,105,-48.75,33.75,11.25,-42.5
638,-596.25,-172.5,157.5,101.25,97.5,-56.25,26.25,3.75,-48.75
639,-570,-161.25,150,97.5,93.75,-56.25,26.25,0,-46.666666666666664
640,-558.75,-161.25,146.25,86.25,86.25,-63.75,18.75,-7.5,-50.416666666666664
641,-585,-172.5,157.5,86.25,86.25,-60,22.5,-3.75,-52.083333333333336
642,-603.75,-180,157.5,93.75,90,-56.25,30,3.75,-51.666666666666664
643,-611.25,-191.25,153.75,90,90,-56.25,30,7.5,-54.166666666666664
644,-622.5,-187.5,165,93.75,97.5,-48.75,37.5,11.25,-50.416666666666664
645,-615,-172.5,172.5,101.25,108.75,-41.25,41.25,15,-43.333333333333336
646,-592.5,-180,165,97.5,101.25,-48.75,33.75,3.75,-46.666666666666664
647,-592.5,-191.25,157.5,90,90,-60,26.25,-3.75,-53.75
648,-600,-187.5,157.5,97.5,93.75,-56.25,30,0,-51.666666666666664
649,-592.5,-172.5,161.25,101.25,101.25,-52.5,30,3.75,-46.666666666666664
650,-577.5,-161.25,153.75,93.75,90,-60,22.5,-3.75,-49.166666666666664
651,-573.75,-172.5,146.25,82.5,75,-71.25,15,-11.25,-56.666666666666664
652,-562.5,-172.5,153.75,90,86.25,-56.25,26.25,0,-48.333333333333336
653,-566.25,-161.25,161.25,97.5,101.25,-45,41.25,15,-39.583333333333336
654,-581.25,-165,150,86.25,90,-52.5,30,3.75,-48.75
655,-581.25,-172.5,138.75,71.25,75,-71.25,11.25,-15,-60.416666666666664
656,-585,-176.25,138.75,67.5,67.5,-75,7.5,-22.5,-64.16666666666667
657,-596.25,-191.25,153.75,86.25,82.5,-63.75,18.75,-7.5,-57.5
658,-615,-213.75,172.5,101.25,86.25,-67.5,15,-15,-59.583333333333336
659,-615,-232.5,195,116.25,78.75,-86.25,-7.5,-37.5,-65.41666666666667
660,-573.75,-240,232.5,150,78.75,-105,-37.5,-67.5,-62.5
661,-566.25,-255,285,191.25,78.75,-127.5,-67.5,-97.5,-62.083333333333336
662,-577.5,-273.75,330,217.5,63.75,-165,-108.75,-135,-72.08333333333333
663,-577.5,-285,363.75,240,60,-183.75,-131.25,-157.5,-74.58333333333333
664,-566.25,-273.75,390,285,82.5,-172.5,-123.75,-153.75,-59.166666666666664
665,-540,-232.5,427.5,348.75,131.25,-138.75,-93.75,-127.5,-25.0
666,-521.25,-191.25,461.25,420,191.25,-86.25,-48.75,-86.25,15.416666666666666
667,-480,-153.75,480,476.25,247.5,-37.5,-3.75,-48.75,53.333333333333336
668,-442.5,-93.75,487.5,517.5,296.25,11.25,45,-7.5,90.41666666666667
669,-420,-18.75,495,562.5,360,82.5,116.25,60,137.5
670,-360,82.5,502.5,618.75,442.5,180,213.75,161.25,204.58333333333334
671,-288.75,180,498.75,682.5,532.5,285,326.25,266.25,275.8333333333333
672,-232.5,288.75,487.5,738.75,630,401.25,442.5,378.75,348.3333333333333
673,-135,435,446.25,750,705,517.5,573.75,510,422.5
674,-52.5,581.25,386.25,746.25,795,652.5,720,656.25,498.3333333333333
675,-11.25,746.25,367.5,791.25,922.5,813.75,892.5,821.25,593.75
676,26.25,956.25,352.5,843.75,1038.75,990,1080,1012.5,700.0
677,90,1200,258.75,821.25,1132.5,1158.75,1278.75,1218.75,795.4166666666666
678,142.5,1350,120,757.5,1211.25,1297.5,1443.75,1387.5,856.6666666666666
679,150,1395,11.25,682.5,1252.5,1410,1578.75,1511.25,887.9166666666666
680,97.5,1421.25,-56.25,592.5,1293.75,1522.5,1702.5,1623.75,910.8333333333334
681,37.5,1410,-67.5,566.25,1361.25,1620,1788.75,1676.25,932.5
682,7.5,1346.25,-45,596.25,1432.5,1680,1815,1657.5,943.3333333333334
683,-52.5,1301.25,-71.25,528.75,1436.25,1687.5,1800,1620,916.6666666666666
684,-157.5,1263.75,-120,397.5,1372.5,1638.75,1743.75,1560,855.4166666666666
685,-262.5,1117.5,-131.25,281.25,1263.75,1503.75,1601.25,1417.5,754.5833333333334
686,-375,903.75,-112.5,176.25,1098.75,1282.5,1372.5,1207.5,617.0833333333334
687,-468.75,712.5,-112.5,41.25,866.25,997.5,1098.75,978.75,457.0833333333333
688,-573.75,543.75,-127.5,-108.75,596.25,693.75,821.25,753.75,288.75
689,-693.75,405,-146.25,-251.25,352.5,420,570,547.5,133.75
690,-765,277.5,-153.75,-360,165,210,371.25,375,13.333333333333334
691,-798.75,108.75,-142.5,-386.25,71.25,86.25,225,225,-67.91666666666667
692,-798.75,-33.75,-127.5,-345,63.75,30,138.75,120,-105.83333333333333
693,-776.25,-78.75,-127.5,-300,78.75,26.25,123.75,86.25,-107.5
694,-738.75,-52.5,-112.5,-236.25,112.5,56.25,150,105,-79.58333333333333
695,-690,-37.5,-105,-183.75,131.25,63.75,157.5,108.75,-61.666666666666664
696,-678.75,-63.75,-97.5,-168.75,101.25,37.5,138.75,97.5,-70.41666666666667
697,-663.75,-60,-86.25,-157.5,60,0,112.5,82.5,-79.16666666666667
698,-641.25,-30,-67.5,-116.25,67.5,-3.75,112.5,86.25,-65.83333333333333
699,-641.25,-22.5,-26.25,-48.75,112.5,30,138.75,112.5,-38.333333333333336
700,-622.5,-22.5,15,11.25,150,56.25,157.5,127.5,-14.166666666666666
701,-558.75,-22.5,41.25,60,180,67.5,165,127.5,6.666666666666667
702,-517.5,-41.25,63.75,97.5,198.75,71.25,157.5,116.25,16.25
703,-510,-45,93.75,123.75,206.25,71.25,150,108.75,22.083333333333332
704,-528.75,-48.75,120,138.75,210,71.25,146.25,101.25,23.333333333333332
705,-558.75,-60,138.75,153.75,217.5,75,146.25,97.5,23.333333333333332
706,-555,-63.75,150,161.25,221.25,67.5,138.75,90,23.333333333333332
707,-525,-63.75,157.5,165,213.75,60,131.25,86.25,25.0
708,-510,-71.25,165,172.5,210,56.25,127.5,82.5,25.833333333333332
709,-532.5,-90,161.25,168.75,198.75,41.25,116.25,71.25,15.0
710,-566.25,-101.25,153.75,161.25,187.5,30,105,60,3.3333333333333335
711,-577.5,-116.25,150,150,176.25,18.75,90,52.5,-6.25
712,-555,-116.25,146.25,146.25,165,11.25,86.25,45,-7.916666666666667
713,-532.5,-101.25,138.75,138.75,157.5,3.75,78.75,41.25,-8.333333333333334
714,-536.25,-112.5,138.75,131.25,150,-3.75,75,33.75,-13.75
715,-540,-127.5,146.25,135,150,0,75,37.5,-13.75
716,-536.25,-127.5,153.75,138.75,153.75,0,78.75,41.25,-10.833333333333334
717,-528.75,-116.25,153.75,142.5,157.5,3.75,82.5,41.25,-7.083333333333333
718,-543.75,-127.5,153.75,138.75,153.75,-3.75,75,37.5,-12.916666666666666
719,-566.25,-146.25,165,150,157.5,0,78.75,41.25,-13.333333333333334
720,-555,-138.75,165,157.5,161.25,3.75,82.5,45,-8.75
721,-525,-116.25,168.75,161.25,168.75,3.75,86.25,48.75,-0.4166666666666667
722,-506.25,-108.75,168.75,153.75,157.5,-3.75,78.75,41.25,-2.0833333333333335
723,-528.75,-127.5,153.75,138.75,138.75,-11.25,71.25,37.5,-14.166666666666666
724,-536.25,-138.75,146.25,135,135,-11.25,75,41.25,-17.083333333333332
725,-502.5,-131.25,142.5,142.5,146.25,-11.25,71.25,37.5,-11.666666666666666
726,-525,-138.75,142.5,142.5,146.25,-15,67.5,37.5,-15.833333333333334
727,-570,-142.5,146.25,138.75,142.5,-11.25,75,41.25,-20.0
728,-558.75,-135,138.75,135,142.5,-11.25,67.5,33.75,-20.833333333333332
729,-543.75,-127.5,135,127.5,135,-22.5,60,26.25,-23.333333333333332
730,-543.75,-120,146.25,146.25,150,-7.5,71.25,37.5,-13.333333333333334
731,-532.5,-123.75,157.5,157.5,161.25,3.75,82.5,45,-5.416666666666667
732,-528.75,-127.5,157.5,165,165,3.75,86.25,48.75,-3.3333333333333335
733,-502.5,-112.5,146.25,165,161.25,0,78.75,45,-2.0833333333333335
734,-502.5,-116.25,142.5,161.25,157.5,-3.75,78.75,45,-4.166666666666667
735,-536.25,-146.25,135,153.75,150,-7.5,75,41.25,-15.0
736,-536.25,-146.25,138.75,153.75,153.75,0,82.5,48.75,-11.666666666666666
737,-521.25,-135,142.5,161.25,161.25,7.5,86.25,56.25,-4.583333333333333
738,-513.75,-131.25,138.75,161.25,161.25,7.5,86.25,56.25,-3.75
739,-521.25,-135,142.5,161.25,161.25,7.5,90,56.25,-4.166666666666667
740,-521.25,-131.25,138.75,161.25,161.25,3.75,86.25,48.75,-5.833333333333333
741,-513.75,-116.25,127.5,153.75,153.75,0,78.75,41.25,-8.333333333333334
742,-525,-112.5,123.75,153.75,153.75,-3.75,78.75,41.25,-10.0
743,-532.5,-120,135,165,161.25,3.75,86.25,52.5,-5.416666666666667
744,-502.5,-101.25,142.5,176.25,168.75,11.25,93.75,60,5.416666666666667
745,-491.25,-93.75,150,187.5,180,22.5,105,71.25,14.583333333333334
746,-547.5,-135,146.25,187.5,180,22.5,105,71.25,3.3333333333333335
747,-558.75,-150,138.75,172.5,168.75,15,101.25,67.5,-5.0
748,-498.75,-123.75,116.25,157.5,153.75,-3.75,82.5,45,-7.916666666666667
749,-468.75,-90,112.5,165,161.25,0,82.5,48.75,1.25
750,-483.75,-82.5,123.75,172.5,168.75,15,101.25,67.5,9.166666666666666
751,-502.5,-108.75,123.75,172.5,168.75,18.75,101.25,67.5,4.583333333333333
752,-510,-135,116.25,165,165,11.25,93.75,60,-3.75
753,-502.5,-142.5,112.5,161.25,165,7.5,90,52.5,-6.25
754,-506.25,-127.5,127.5,180,180,22.5,105,67.5,5.416666666666667
755,-502.5,-108.75,135,183.75,176.25,22.5,112.5,71.25,10.0
756,-483.75,-101.25,123.75,176.25,168.75,15,101.25,63.75,7.083333333333333
757,-472.5,-90,123.75,187.5,180,18.75,101.25,63.75,12.5
758,-487.5,-97.5,120,187.5,180,18.75,105,71.25,10.833333333333334
759,-502.5,-120,116.25,180,176.25,15,101.25,67.5,3.75
760,-495,-127.5,116.25,180,180,22.5,108.75,75,6.666666666666667
761,-487.5,-127.5,112.5,176.25,176.25,22.5,105,71.25,5.416666666666667
762,-483.75,-120,108.75,172.5,168.75,18.75,101.25,71.25,4.166666666666667
763,-491.25,-123.75,105,176.25,168.75,15,101.25,67.5,2.0833333333333335
764,-476.25,-116.25,97.5,168.75,168.75,15,97.5,63.75,2.0833333333333335
765,-468.75,-97.5,108.75,176.25,176.25,22.5,108.75,75,11.25
766,-476.25,-93.75,108.75,180,176.25,26.25,112.5,71.25,11.666666666666666
767,-480,-93.75,108.75,180,180,26.25,112.5,75,12.083333333333334
768,-502.5,-86.25,120,198.75,195,41.25,131.25,93.75,21.25
769,-487.5,-82.5,120,202.5,195,45,131.25,97.5,24.583333333333332
770,-457.5,-97.5,101.25,187.5,180,26.25,116.25,82.5,15.416666666666666
771,-461.25,-97.5,97.5,180,172.5,26.25,116.25,82.5,12.916666666666666
772,-472.5,-101.25,101.25,183.75,176.25,30,120,90,14.166666666666666
773,-476.25,-101.25,93.75,172.5,168.75,22.5,112.5,82.5,8.333333333333334
774,-465,-90,86.25,161.25,157.5,11.25,101.25,71.25,3.75
775,-465,-97.5,78.75,153.75,150,7.5,97.5,67.5,-0.8333333333333334
776,-480,-112.5,82.5,150,146.25,7.5,97.5,67.5,-4.583333333333333
777,-476.25,-116.25,93.75,161.25,153.75,11.25,105,75,0.8333333333333334
778,-457.5,-120,90,157.5,153.75,7.5,105,71.25,0.8333333333333334
779,-465,-116.25,90,153.75,150,3.75,101.25,71.25,-1.25
780,-472.5,-86.25,97.5,165,157.5,15,116.25,82.5,8.333333333333334
781,-465,-71.25,97.5,172.5,161.25,18.75,120,90,13.75
782,-468.75,-86.25,93.75,165,157.5,11.25,116.25,86.25,8.333333333333334
783,-465,-78.75,97.5,165,153.75,11.25,116.25,90,10.0
784,-431.25,-56.25,101.25,161.25,150,15,120,97.5,17.5
785,-416.25,-63.75,90,150,138.75,7.5,112.5,90,12.083333333333334
786,-453.75,-97.5,93.75,150,138.75,7.5,112.5,93.75,5.0
787,-446.25,-93.75,82.5,138.75,127.5,-3.75,105,86.25,-0.4166666666666667
788,-427.5,-56.25,78.75,127.5,116.25,-15,97.5,78.75,0.0
789,-476.25,-60,86.25,131.25,116.25,-11.25,101.25,82.5,-3.3333333333333335
790,-506.25,-82.5,97.5,135,120,-3.75,112.5,93.75,-3.75
791,-453.75,-90,93.75,131.25,116.25,-7.5,105,86.25,-2.0833333333333335
792,-405,-82.5,90,131.25,112.5,-15,97.5,86.25,1.6666666666666667
793,-408.75,-67.5,86.25,127.5,108.75,-22.5,93.75,82.5,0.0
794,-423.75,-78.75,71.25,108.75,90,-33.75,82.5,75,-12.083333333333334
795,-442.5,-101.25,75,101.25,82.5,-37.5,82.5,75,-18.333333333333332
796,-453.75,-90,78.75,108.75,86.25,-33.75,86.25,82.5,-15.0
797,-442.5,-71.25,67.5,97.5,78.75,-41.25,78.75,75,-17.5
798,-427.5,-75,56.25,86.25,67.5,-56.25,67.5,63.75,-24.166666666666668
799,-438.75,-78.75,60,82.5,60,-60,67.5,63.75,-27.083333333333332
800,-453.75,-67.5,63.75,78.75,63.75,-56.25,71.25,71.25,-25.416666666666668
801,-465,-75,67.5,78.75,60,-60,71.25,67.5,-28.333333333333332
802,-461.25,-78.75,67.5,78.75,56.25,-63.75,71.25,63.75,-29.583333333333332
803,-442.5,-86.25,78.75,82.5,60,-56.25,75,71.25,-24.166666666666668
804,-435,-93.75,86.25,90,63.75,-52.5,78.75,78.75,-20.416666666666668
805,-427.5,-75,78.75,90,63.75,-56.25,78.75,78.75,-18.75
806,-420,-56.25,78.75,90,60,-56.25,75,82.5,-16.25
807,-420,-48.75,86.25,86.25,60,-56.25,78.75,82.5,-14.583333333333334
808,-420,-60,75,75,48.75,-67.5,67.5,75,-22.916666666666668
809,-446.25,-71.25,75,71.25,41.25,-67.5,67.5,75,-28.333333333333332
810,-487.5,-67.5,86.25,86.25,56.25,-56.25,78.75,82.5,-24.583333333333332
811,-498.75,-78.75,86.25,90,60,-56.25,75,82.5,-26.666666666666668
812,-468.75,-97.5,78.75,75,45,-71.25,60,63.75,-35.0
813,-457.5,-97.5,86.25,78.75,48.75,-67.5,63.75,63.75,-31.25
814,-465,-93.75,101.25,93.75,60,-56.25,71.25,71.25,-24.166666666666668
815,-468.75,-97.5,112.5,97.5,63.75,-56.25,71.25,75,-22.5
816,-465,-86.25,112.5,101.25,63.75,-56.25,71.25,67.5,-21.25
817,-465,-82.5,108.75,108.75,67.5,-60,67.5,63.75,-21.25
818,-465,-93.75,105,112.5,67.5,-63.75,60,60,-24.166666666666668
819,-480,-90,105,108.75,63.75,-63.75,56.25,52.5,-27.5
820,-510,-75,120,123.75,75,-52.5,71.25,63.75,-20.416666666666668
821,-525,-78.75,127.5,127.5,82.5,-48.75,71.25,63.75,-20.0
822,-502.5,-90,112.5,112.5,71.25,-63.75,52.5,45,-29.166666666666668
823,-498.75,-108.75,108.75,112.5,71.25,-67.5,48.75,37.5,-32.916666666666664
824,-528.75,-146.25,116.25,120,78.75,-60,52.5,41.25,-36.25
825,-525,-150,131.25,131.25,90,-52.5,60,45,-30.0
826,-513.75,-127.5,142.5,135,93.75,-48.75,60,45,-23.75
827,-532.5,-116.25,135,131.25,86.25,-56.25,52.5,33.75,-29.583333333333332
828,-528.75,-105,138.75,138.75,93.75,-52.5,52.5,33.75,-25.416666666666668
829,-521.25,-97.5,150,153.75,108.75,-37.5,67.5,45,-14.583333333333334
830,-513.75,-97.5,153.75,165,120,-33.75,71.25,48.75,-9.583333333333334
831,-510,-112.5,153.75,161.25,112.5,-37.5,63.75,41.25,-14.166666666666666
832,-528.75,-138.75,146.25,150,105,-45,56.25,30,-25.0
833,-558.75,-150,153.75,153.75,108.75,-37.5,60,33.75,-26.25
834,-566.25,-150,157.5,146.25,101.25,-41.25,60,30,-29.166666666666668
835,-551.25,-138.75,153.75,146.25,105,-45,52.5,22.5,-28.333333333333332
836,-547.5,-131.25,150,142.5,108.75,-48.75,48.75,15,-29.166666666666668
837,-570,-146.25,153.75,138.75,101.25,-52.5,45,11.25,-35.416666666666664
838,-581.25,-168.75,150,135,97.5,-60,33.75,0,-43.75
839,-581.25,-172.5,161.25,138.75,101.25,-56.25,37.5,3.75,-40.833333333333336
840,-622.5,-172.5,172.5,146.25,108.75,-48.75,48.75,15,-39.166666666666664
841,-637.5,-172.5,172.5,150,112.5,-45,48.75,15,-39.583333333333336
842,-596.25,-161.25,157.5,138.75,101.25,-60,33.75,0,-42.916666666666664
843,-588.75,-165,157.5,131.25,90,-67.5,26.25,-3.75,-46.666666666666664
844,-592.5,-168.75,157.5,127.5,90,-75,22.5,-11.25,-50.0
845,-585,-176.25,142.5,112.5,82.5,-82.5,11.25,-22.5,-57.5
846,-588.75,-187.5,135,108.75,75,-86.25,3.75,-26.25,-62.916666666666664
847,-630,-198.75,150,108.75,78.75,-82.5,11.25,-22.5,-65.0
848,-660,-202.5,157.5,112.5,86.25,-78.75,15,-18.75,-65.41666666666667
849,-660,-198.75,153.75,112.5,82.5,-82.5,11.25,-26.25,-67.5
850,-648.75,-187.5,150,112.5,82.5,-82.5,7.5,-30,-66.25
851,-615,-168.75,150,112.5,78.75,-82.5,11.25,-30,-60.416666666666664
852,-603.75,-157.5,150,108.75,78.75,-82.5,7.5,-33.75,-59.166666666666664
853,-630,-176.25,150,112.5,82.5,-82.5,7.5,-30,-62.916666666666664
854,-652.5,-217.5,153.75,116.25,82.5,-78.75,15,-22.5,-67.08333333333333
855,-652.5,-243.75,150,112.5,78.75,-82.5,11.25,-26.25,-72.5
856,-641.25,-232.5,146.25,108.75,78.75,-82.5,7.5,-33.75,-72.08333333333333
857,-633.75,-217.5,142.5,101.25,67.5,-86.25,3.75,-33.75,-72.91666666666667
858,-630,-195,150,105,71.25,-82.5,7.5,-30,-67.08333333333333
859,-641.25,-187.5,150,112.5,86.25,-78.75,7.5,-30,-64.58333333333333
860,-633.75,-198.75,142.5,97.5,75,-86.25,3.75,-41.25,-71.25
861,-626.25,-213.75,135,86.25,60,-97.5,-7.5,-52.5,-79.58333333333333
862,-626.25,-206.25,146.25,93.75,63.75,-90,-3.75,-45,-74.16666666666667
863,-633.75,-191.25,153.75,105,75,-78.75,11.25,-30,-65.41666666666667
864,-660,-195,157.5,120,90,-67.5,22.5,-18.75,-61.25
865,-645,-183.75,153.75,116.25,82.5,-75,15,-26.25,-62.5
866,-607.5,-172.5,146.25,112.5,78.75,-82.5,11.25,-30,-60.416666666666664
867,-603.75,-172.5,142.5,112.5,82.5,-82.5,7.5,-37.5,-61.25
868,-592.5,-176.25,135,105,75,-90,0,-41.25,-65.0
869,-592.5,-191.25,138.75,108.75,78.75,-82.5,7.5,-33.75,-62.916666666666664
870,-615,-206.25,146.25,112.5,86.25,-75,18.75,-30,-62.5
871,-633.75,-213.75,150,112.5,86.25,-75,15,-30,-65.41666666666667
872,-656.25,-232.5,153.75,112.5,82.5,-71.25,18.75,-26.25,-68.75
873,-660,-243.75,157.5,120,90,-67.5,26.25,-22.5,-66.66666666666667
874,-656.25,-236.25,165,127.5,97.5,-60,26.25,-18.75,-61.666666666666664
875,-652.5,-236.25,157.5,116.25,90,-71.25,18.75,-30,-67.5
876,-637.5,-232.5,153.75,116.25,90,-71.25,18.75,-33.75,-66.25
877,-633.75,-210,161.25,131.25,97.5,-60,26.25,-22.5,-56.666666666666664
878,-660,-213.75,146.25,120,86.25,-71.25,15,-30,-67.5
879,-645,-217.5,127.5,105,75,-82.5,3.75,-41.25,-75.0
880,-607.5,-206.25,127.5,101.25,71.25,-86.25,0,-45,-71.66666666666667
881,-615,-202.5,135,105,75,-82.5,3.75,-41.25,-69.16666666666667
882,-648.75,-217.5,138.75,108.75,78.75,-78.75,11.25,-41.25,-72.08333333333333
883,-645,-225,138.75,101.25,71.25,-82.5,7.5,-41.25,-75.0
884,-618.75,-225,135,97.5,67.5,-82.5,7.5,-45,-73.75
885,-618.75,-213.75,131.25,93.75,71.25,-82.5,7.5,-45,-72.91666666666667
886,-633.75,-191.25,135,93.75,71.25,-78.75,7.5,-48.75,-71.66666666666667
887,-652.5,-198.75,131.25,90,60,-86.25,0,-52.5,-78.75
888,-660,-206.25,135,101.25,71.25,-82.5,7.5,-48.75,-75.83333333333333
889,-652.5,-206.25,131.25,105,78.75,-82.5,7.5,-45,-73.75
890,-637.5,-202.5,131.25,101.25,71.25,-86.25,3.75,-45,-73.75
891,-622.5,-202.5,138.75,108.75,75,-78.75,15,-37.5,-67.08333333333333
892,-600,-210,142.5,116.25,86.25,-71.25,22.5,-30,-60.416666666666664
893,-607.5,-217.5,138.75,112.5,86.25,-71.25,22.5,-30,-62.916666666666664
894,-660,-206.25,150,123.75,93.75,-60,33.75,-18.75,-60.416666666666664
895,-660,-202.5,142.5,112.5,82.5,-71.25,18.75,-30,-67.5
896,-626.25,-228.75,123.75,86.25,60,-93.75,-3.75,-56.25,-82.08333333333333
897,-641.25,-255,116.25,75,45,-105,-11.25,-67.5,-93.75
898,-641.25,-236.25,131.25,93.75,67.5,-90,3.75,-52.5,-80.41666666666667
899,-622.5,-210,142.5,108.75,78.75,-78.75,15,-41.25,-67.5
900,-611.25,-198.75,142.5,108.75,75,-78.75,11.25,-41.25,-65.83333333333333
901,-618.75,-202.5,142.5,112.5,82.5,-75,15,-41.25,-65.0
902,-630,-210,135,108.75,78.75,-82.5,11.25,-45,-70.41666666666667
903,-626.25,-202.5,123.75,97.5,67.5,-90,3.75,-48.75,-75.0
904,-615,-195,127.5,97.5,71.25,-86.25,7.5,-45,-70.83333333333333
905,-637.5,-213.75,123.75,90,67.5,-90,3.75,-48.75,-78.33333333333333
906,-652.5,-243.75,116.25,86.25,60,-93.75,-3.75,-56.25,-87.5
907,-652.5,-255,116.25,82.5,56.25,-97.5,-3.75,-60,-90.41666666666667
908,-667.5,-255,112.5,75,48.75,-105,-11.25,-67.5,-96.66666666666667
909,-675,-262.5,108.75,67.5,41.25,-108.75,-15,-71.25,-101.66666666666667
910,-667.5,-258.75,120,78.75,56.25,-97.5,0,-56.25,-91.66666666666667
911,-633.75,-228.75,123.75,86.25,60,-90,3.75,-52.5,-81.25
912,-600,-202.5,127.5,90,63.75,-86.25,7.5,-48.75,-72.08333333333333
913,-596.25,-187.5,135,101.25,75,-78.75,15,-41.25,-64.16666666666667
914,-626.25,-206.25,131.25,97.5,67.5,-78.75,15,-41.25,-71.25
915,-622.5,-217.5,108.75,75,48.75,-97.5,0,-52.5,-84.16666666666667
916,-615,-210,101.25,67.5,41.25,-105,-7.5,-63.75,-87.91666666666667
917,-633.75,-206.25,97.5,63.75,37.5,-108.75,-11.25,-67.5,-92.08333333333333
918,-633.75,-217.5,105,67.5,41.25,-105,-7.5,-63.75,-90.41666666666667
919,-611.25,-210,120,82.5,60,-86.25,7.5,-52.5,-76.66666666666667
920,-622.5,-202.5,135,86.25,60,-82.5,15,-45,-72.91666666666667
921,-648.75,-206.25,142.5,90,60,-82.5,15,-45,-75.0
922,-645,-195,142.5,97.5,71.25,-78.75,11.25,-48.75,-71.66666666666667
923,-637.5,-195,150,101.25,75,-75,15,-45,-67.91666666666667
924,-626.25,-191.25,153.75,101.25,67.5,-78.75,15,-45,-67.08333333333333
925,-603.75,-172.5,157.5,116.25,82.5,-67.5,22.5,-37.5,-55.833333333333336
926,-603.75,-180,146.25,105,71.25,-82.5,7.5,-48.75,-65.0
927,-626.25,-198.75,146.25,101.25,63.75,-86.25,7.5,-52.5,-71.66666666666667
928,-637.5,-206.25,157.5,116.25,82.5,-71.25,18.75,-41.25,-64.58333333333333
929,-645,-202.5,161.25,123.75,90,-67.5,22.5,-37.5,-61.666666666666664
930,-637.5,-195,165,127.5,90,-63.75,30,-33.75,-57.5
931,-618.75,-202.5,161.25,120,86.25,-67.5,26.25,-37.5,-59.166666666666664
932,-626.25,-217.5,161.25,112.5,75,-71.25,22.5,-41.25,-65.0
933,-615,-198.75,165,108.75,71.25,-71.25,22.5,-37.5,-61.666666666666664
934,-607.5,-168.75,168.75,123.75,90,-60,30,-30,-50.416666666666664
935,-641.25,-165,176.25,131.25,101.25,-56.25,33.75,-30,-50.0
936,-648.75,-165,187.5,131.25,97.5,-52.5,37.5,-26.25,-48.75
937,-615,-142.5,183.75,135,105,-48.75,45,-15,-39.166666666666664
938,-596.25,-131.25,165,123.75,93.75,-52.5,41.25,-15,-41.25
939,-592.5,-142.5,153.75,112.5,86.25,-56.25,41.25,-15,-45.833333333333336
940,-562.5,-131.25,150,120,97.5,-48.75,48.75,-7.5,-37.083333333333336
941,-547.5,-112.5,142.5,123.75,101.25,-45,52.5,-3.75,-32.083333333333336
942,-570,-127.5,131.25,112.5,93.75,-48.75,48.75,-7.5,-40.833333333333336
943,-577.5,-150,105,86.25,71.25,-67.5,30,-22.5,-58.333333333333336
944,-566.25,-150,93.75,78.75,63.75,-71.25,26.25,-26.25,-61.25
945,-570,-157.5,97.5,82.5,67.5,-67.5,30,-26.25,-60.416666666666664
946,-558.75,-135,93.75,82.5,75,-63.75,33.75,-26.25,-55.416666666666664
947,-562.5,-112.5,86.25,75,60,-75,22.5,-30,-59.583333333333336
948,-600,-135,90,75,56.25,-78.75,22.5,-30,-66.66666666666667
949,-622.5,-161.25,93.75,78.75,60,-71.25,26.25,-22.5,-68.75
950,-607.5,-176.25,82.5,63.75,48.75,-82.5,18.75,-30,-75.83333333333333
951,-581.25,-176.25,67.5,52.5,41.25,-93.75,7.5,-41.25,-80.41666666666667
952,-577.5,-183.75,63.75,56.25,45,-93.75,3.75,-45,-81.25
953,-573.75,-183.75,75,63.75,48.75,-90,11.25,-37.5,-76.25
954,-577.5,-191.25,78.75,60,45,-90,7.5,-41.25,-78.75
955,-607.5,-228.75,78.75,52.5,33.75,-101.25,-3.75,-52.5,-92.08333333333333
956,-630,-240,86.25,56.25,41.25,-97.5,0,-52.5,-92.91666666666667
957,-637.5,-240,90,52.5,37.5,-97.5,3.75,-52.5,-93.75
958,-645,-247.5,86.25,41.25,22.5,-112.5,-11.25,-67.5,-103.75
959,-637.5,-243.75,82.5,37.5,15,-120,-22.5,-75,-107.08333333333333
960,-615,-225,82.5,37.5,18.75,-120,-26.25,-78.75,-102.91666666666667
961,-622.5,-210,90,45,15,-123.75,-26.25,-75,-100.83333333333333
962,-648.75,-232.5,67.5,22.5,-3.75,-138.75,-41.25,-90,-118.33333333333333
963,-637.5,-240,60,11.25,-11.25,-146.25,-48.75,-97.5,-123.33333333333333
964,-645,-240,63.75,11.25,-15,-146.25,-48.75,-97.5,-124.16666666666667
965,-693.75,-262.5,67.5,18.75,-3.75,-138.75,-41.25,-90,-127.08333333333333
966,-693.75,-281.25,63.75,11.25,-7.5,-146.25,-48.75,-101.25,-133.75
967,-675,-311.25,52.5,-7.5,-26.25,-165,-67.5,-120,-146.66666666666666
968,-697.5,-337.5,56.25,-11.25,-33.75,-165,-67.5,-120,-152.91666666666666
969,-693.75,-318.75,71.25,-3.75,-26.25,-153.75,-56.25,-108.75,-143.33333333333334
970,-652.5,-270,75,7.5,-11.25,-146.25,-48.75,-101.25,-127.5
971,-637.5,-247.5,67.5,3.75,-11.25,-153.75,-52.5,-108.75,-126.66666666666667
972,-641.25,-243.75,63.75,0,-22.5,-157.5,-60,-112.5,-130.41666666666666
973,-656.25,-243.75,63.75,3.75,-22.5,-157.5,-60,-112.5,-131.66666666666666
974,-671.25,-266.25,60,3.75,-22.5,-157.5,-60,-112.5,-136.25
975,-686.25,-285,63.75,7.5,-18.75,-150,-52.5,-101.25,-135.83333333333334
976,-686.25,-285,71.25,11.25,-11.25,-142.5,-45,-93.75,-131.25
977,-701.25,-307.5,63.75,11.25,-15,-146.25,-48.75,-93.75,-137.5
978,-716.25,-307.5,56.25,7.5,-18.75,-150,-48.75,-101.25,-142.08333333333334
979,-705,-288.75,52.5,-11.25,-33.75,-165,-63.75,-112.5,-147.5
980,-671.25,-292.5,37.5,-30,-48.75,-183.75,-78.75,-131.25,-155.41666666666666
981,-682.5,-315,37.5,-26.25,-45,-180,-78.75,-131.25,-157.91666666666666
982,-686.25,-315,48.75,-11.25,-30,-165,-67.5,-120,-149.58333333333334
983,-678.75,-311.25,60,0,-22.5,-157.5,-56.25,-112.5,-142.08333333333334
984,-667.5,-303.75,60,3.75,-18.75,-157.5,-56.25,-108.75,-138.75
985,-652.5,-285,60,7.5,-11.25,-150,-52.5,-105,-132.08333333333334
986,-652.5,-285,60,7.5,-11.25,-150,-52.5,-101.25,-131.66666666666666
987,-667.5,-296.25,48.75,-3.75,-30,-165,-63.75,-112.5,-143.33333333333334
988,-678.75,-300,52.5,-3.75,-30,-165,-63.75,-116.25,-145.0
989,-671.25,-300,60,0,-30,-165,-67.5,-120,-143.75
990,-660,-311.25,71.25,15,-30,-172.5,-78.75,-131.25,-144.16666666666666
991,-675,-341.25,105,37.5,-26.25,-187.5,-97.5,-153.75,-148.75
992,-690,-375,138.75,60,-37.5,-217.5,-135,-191.25,-160.83333333333334
993,-678.75,-408.75,176.25,78.75,-60,-258.75,-183.75,-243.75,-175.41666666666666
994,-690,-438.75,221.25,108.75,-71.25,-288.75,-221.25,-281.25,-184.58333333333334
995,-720,-442.5,258.75,150,-56.25,-292.5,-225,-288.75,-179.58333333333334
996,-701.25,-408.75,296.25,210,-15,-270,-206.25,-270,-151.66666666666666
997,-637.5,-356.25,337.5,288.75,48.75,-221.25,-165,-232.5,-104.16666666666667
998,-592.5,-303.75,363.75,356.25,108.75,-168.75,-116.25,-191.25,-60.416666666666664
999,-558.75,-243.75,378.75,416.25,168.75,-112.5,-63.75,-142.5,-17.5
1000,-502.5,-180,393.75,468.75,228.75,-45,3.75,-82.5,31.666666666666668
1001,-457.5,-112.5,393.75,498.75,281.25,22.5,71.25,-15,75.83333333333333
1002,-408.75,-22.5,390,543.75,356.25,112.5,165,78.75,135.0
1003,-337.5,71.25,386.25,611.25,450,225,277.5,183.75,207.5
1004,-277.5,172.5,371.25,660,543.75,337.5,393.75,292.5,277.0833333333333
1005,-217.5,300,326.25,660,615,450,521.25,420,341.6666666666667
1006,-142.5,468.75,281.25,667.5,708.75,588.75,675,573.75,424.5833333333333
1007,-90,656.25,266.25,716.25,828.75,742.5,836.25,731.25,520.8333333333334
1008,-75,873.75,247.5,772.5,967.5,926.25,1038.75,933.75,631.6666666666666
1009,-45,1102.5,153.75,753.75,1068.75,1102.5,1245,1151.25,725.8333333333334
1010,33.75,1252.5,7.5,667.5,1106.25,1215,1387.5,1293.75,773.75
1011,71.25,1308.75,-101.25,596.25,1151.25,1323.75,1515,1413.75,808.75
1012,30,1305,-165,517.5,1200,1436.25,1638.75,1522.5,831.6666666666666
1013,-33.75,1237.5,-165,498.75,1256.25,1518.75,1702.5,1552.5,840.8333333333334
1014,-105,1158.75,-146.25,517.5,1316.25,1567.5,1721.25,1530,840.0
1015,-191.25,1121.25,-180,431.25,1305,1567.5,1698.75,1492.5,805.0
1016,-296.25,1046.25,-232.5,281.25,1218.75,1485,1612.5,1402.5,724.1666666666666
1017,-401.25,881.25,-247.5,142.5,1076.25,1312.5,1432.5,1222.5,602.0833333333334
1018,-517.5,693.75,-221.25,33.75,896.25,1080,1196.25,1012.5,463.75
1019,-622.5,525,-198.75,-78.75,675,806.25,941.25,802.5,316.6666666666667
1020,-727.5,382.5,-198.75,-202.5,435,528.75,686.25,600,167.08333333333334
1021,-836.25,255,-210,-337.5,202.5,270,453.75,408.75,22.916666666666668
1022,-881.25,93.75,-232.5,-442.5,26.25,75,255,232.5,-97.08333333333333
1023,-873.75,-71.25,-240,-457.5,-48.75,-41.25,112.5,78.75,-171.25
1024,-870,-180,-243.75,-435,-71.25,-97.5,30,-18.75,-209.58333333333334
1025,-881.25,-206.25,-236.25,-390,-56.25,-90,26.25,-33.75,-207.5
1026,-881.25,-206.25,-225,-326.25,-15,-56.25,52.5,-15,-185.83333333333334
1027,-862.5,-232.5,-217.5,-288.75,-7.5,-60,52.5,-15,-181.25
1028,-825,-258.75,-210,-281.25,-45,-90,33.75,-30,-189.58333333333334
1029,-795,-255,-191.25,-258.75,-71.25,-112.5,18.75,-41.25,-189.58333333333334
1030,-765,-213.75,-165,-217.5,-63.75,-120,15,-41.25,-174.58333333333334
1031,-727.5,-168.75,-138.75,-168.75,-48.75,-112.5,18.75,-37.5,-153.75
1032,-690,-150,-97.5,-101.25,0,-78.75,45,-15,-120.83333333333333
1033,-663.75,-157.5,-56.25,-30,56.25,-41.25,67.5,3.75,-91.25
1034,-633.75,-161.25,-26.25,11.25,78.75,-30,75,3.75,-75.83333333333333
1035,-596.25,-157.5,-7.5,30,86.25,-30,67.5,-3.75,-67.91666666666667
1036,-585,-168.75,3.75,37.5,82.5,-41.25,56.25,-15,-70.0
1037,-603.75,-195,18.75,52.5,82.5,-48.75,48.75,-26.25,-74.58333333333333
1038,-663.75,-217.5,45,71.25,97.5,-37.5,56.25,-18.75,-74.16666666666667
1039,-701.25,-240,56.25,75,93.75,-45,52.5,-22.5,-81.25
1040,-686.25,-266.25,37.5,45,60,-75,22.5,-52.5,-101.66666666666667
1041,-652.5,-266.25,30,33.75,48.75,-90,7.5,-67.5,-106.25
1042,-637.5,-243.75,41.25,45,52.5,-93.75,3.75,-67.5,-100.0
1043,-645,-232.5,52.5,52.5,52.5,-90,7.5,-67.5,-96.66666666666667
1044,-652.5,-240,60,56.25,52.5,-90,11.25,-63.75,-96.25
1045,-652.5,-251.25,60,60,52.5,-93.75,7.5,-63.75,-97.91666666666667
1046,-652.5,-262.5,48.75,48.75,37.5,-108.75,-7.5,-75,-107.91666666666667
1047,-648.75,-262.5,37.5,33.75,15,-123.75,-22.5,-86.25,-117.5
1048,-641.25,-266.25,33.75,30,15,-123.75,-22.5,-86.25,-117.91666666666667
1049,-641.25,-277.5,37.5,41.25,30,-116.25,-15,-82.5,-113.75
1050,-645,-285,41.25,41.25,26.25,-116.25,-15,-82.5,-115.0
1051,-648.75,-288.75,41.25,33.75,18.75,-120,-18.75,-86.25,-118.75
1052,-660,-288.75,41.25,30,15,-123.75,-22.5,-90,-122.08333333333333
1053,-678.75,-285,45,33.75,18.75,-120,-15,-86.25,-120.83333333333333
1054,-701.25,-285,56.25,41.25,26.25,-116.25,-11.25,-78.75,-118.75
1055,-667.5,-285,41.25,30,11.25,-131.25,-26.25,-93.75,-124.58333333333333
1056,-607.5,-258.75,30,26.25,7.5,-135,-30,-101.25,-118.75
1057,-618.75,-243.75,37.5,37.5,15,-127.5,-22.5,-90,-112.5
1058,-637.5,-262.5,41.25,41.25,18.75,-127.5,-18.75,-86.25,-114.58333333333333
1059,-622.5,-281.25,30,30,7.5,-138.75,-30,-97.5,-122.5
1060,-626.25,-281.25,30,30,7.5,-138.75,-26.25,-93.75,-122.08333333333333
1061,-645,-273.75,37.5,37.5,15,-127.5,-18.75,-86.25,-117.91666666666667
1062,-630,-247.5,48.75,52.5,26.25,-116.25,-3.75,-71.25,-104.58333333333333
1063,-607.5,-255,41.25,41.25,22.5,-123.75,-11.25,-78.75,-107.91666666666667
1064,-615,-288.75,33.75,30,7.5,-131.25,-22.5,-93.75,-120.0
1065,-626.25,-296.25,41.25,37.5,15,-127.5,-15,-86.25,-117.5
1066,-630,-273.75,52.5,56.25,33.75,-112.5,0,-75,-105.41666666666667
1067,-630,-270,48.75,56.25,30,-116.25,-3.75,-75,-106.66666666666667
1068,-633.75,-273.75,41.25,52.5,26.25,-120,-7.5,-78.75,-110.41666666666667
1069,-626.25,-262.5,48.75,63.75,33.75,-112.5,0,-71.25,-102.91666666666667
1070,-603.75,-247.5,37.5,60,30,-116.25,-3.75,-75,-102.08333333333333
1071,-600,-251.25,37.5,60,30,-116.25,-3.75,-75,-102.08333333333333
1072,-626.25,-262.5,45,67.5,41.25,-105,3.75,-67.5,-100.41666666666667
1073,-637.5,-273.75,33.75,60,33.75,-112.5,-3.75,-71.25,-107.91666666666667
1074,-607.5,-281.25,26.25,52.5,26.25,-120,-11.25,-82.5,-110.83333333333333
1075,-618.75,-281.25,30,56.25,26.25,-116.25,-7.5,-78.75,-110.0
1076,-637.5,-277.5,30,48.75,22.5,-116.25,-7.5,-82.5,-113.33333333333333
1077,-618.75,-281.25,26.25,48.75,22.5,-116.25,-7.5,-82.5,-112.08333333333333
1078,-603.75,-258.75,30,56.25,30,-112.5,-3.75,-75,-104.16666666666667
1079,-611.25,-221.25,33.75,63.75,33.75,-108.75,0,-71.25,-97.91666666666667
1080,-618.75,-217.5,33.75,67.5,37.5,-105,3.75,-67.5,-96.25
1081,-592.5,-232.5,33.75,75,45,-101.25,11.25,-60,-91.25
1082,-581.25,-258.75,33.75,78.75,48.75,-93.75,15,-56.25,-90.41666666666667
1083,-577.5,-285,26.25,75,45,-97.5,11.25,-60,-95.83333333333333
1084,-562.5,-258.75,22.5,75,45,-97.5,11.25,-60,-91.66666666666667
1085,-566.25,-236.25,26.25,78.75,48.75,-93.75,15,-52.5,-86.66666666666667
1086,-603.75,-236.25,37.5,90,63.75,-78.75,30,-41.25,-82.08333333333333
1087,-637.5,-247.5,37.5,90,60,-82.5,30,-41.25,-87.91666666666667
1088,-603.75,-266.25,7.5,60,33.75,-105,3.75,-67.5,-104.16666666666667
1089,-566.25,-281.25,0,48.75,22.5,-116.25,-3.75,-78.75,-108.33333333333333
1090,-570,-266.25,15,67.5,41.25,-97.5,15,-63.75,-95.41666666666667
1091,-570,-243.75,15,71.25,45,-93.75,15,-60,-91.25
1092,-555,-225,18.75,78.75,48.75,-90,22.5,-52.5,-83.75
1093,-543.75,-213.75,22.5,90,60,-78.75,33.75,-41.25,-74.58333333333333
1094,-555,-225,11.25,82.5,52.5,-86.25,26.25,-45,-82.08333333333333
1095,-562.5,-232.5,3.75,71.25,45,-93.75,18.75,-52.5,-89.16666666666667
1096,-585,-232.5,15,82.5,60,-78.75,33.75,-33.75,-82.08333333333333
1097,-581.25,-247.5,11.25,82.5,56.25,-82.5,33.75,-33.75,-84.58333333333333
1098,-570,-262.5,3.75,75,48.75,-90,26.25,-41.25,-90.0
1099,-570,-247.5,0,67.5,45,-93.75,18.75,-48.75,-92.08333333333333
1100,-573.75,-236.25,0,63.75,41.25,-93.75,22.5,-45,-91.25
1101,-570,-236.25,3.75,71.25,48.75,-86.25,30,-37.5,-86.25
1102,-543.75,-228.75,11.25,78.75,56.25,-78.75,37.5,-30,-77.5
1103,-528.75,-225,11.25,75,48.75,-86.25,30,-37.5,-79.16666666666667
1104,-536.25,-210,11.25,78.75,48.75,-86.25,33.75,-37.5,-77.5
1105,-521.25,-195,11.25,82.5,52.5,-86.25,37.5,-33.75,-72.5
1106,-498.75,-210,0,78.75,45,-93.75,30,-37.5,-76.25
1107,-510,-228.75,-11.25,63.75,33.75,-101.25,22.5,-45,-86.25
1108,-543.75,-221.25,0,71.25,45,-90,33.75,-30,-81.66666666666667
1109,-558.75,-191.25,7.5,78.75,52.5,-78.75,45,-18.75,-73.75
1110,-532.5,-176.25,3.75,75,45,-82.5,41.25,-22.5,-72.08333333333333
1111,-521.25,-195,-11.25,56.25,26.25,-101.25,26.25,-37.5,-84.16666666666667
1112,-513.75,-195,-3.75,56.25,30,-97.5,30,-30,-80.41666666666667
1113,-517.5,-213.75,0,56.25,26.25,-97.5,30,-30,-82.91666666666667
1114,-540,-232.5,-3.75,52.5,22.5,-105,26.25,-33.75,-90.41666666666667
1115,-558.75,-240,-7.5,48.75,18.75,-108.75,22.5,-37.5,-95.83333333333333
1116,-551.25,-228.75,-11.25,45,11.25,-112.5,22.5,-41.25,-96.25
1117,-540,-198.75,-3.75,56.25,18.75,-105,30,-33.75,-86.25
1118,-517.5,-195,-7.5,48.75,15,-108.75,30,-30,-85.0
1119,-483.75,-213.75,-15,37.5,3.75,-120,18.75,-33.75,-89.58333333333333
1120,-480,-225,-26.25,26.25,-7.5,-127.5,11.25,-37.5,-96.25
1121,-528.75,-232.5,-22.5,22.5,-11.25,-127.5,11.25,-37.5,-102.91666666666667
1122,-562.5,-225,-18.75,22.5,-11.25,-127.5,15,-33.75,-104.58333333333333
1123,-543.75,-213.75,-26.25,11.25,-22.5,-138.75,7.5,-41.25,-107.5
1124,-506.25,-198.75,-26.25,7.5,-22.5,-138.75,7.5,-41.25,-102.08333333333333
1125,-487.5,-183.75,-22.5,3.75,-26.25,-138.75,7.5,-41.25,-98.75
1126,-495,-187.5,-22.5,0,-33.75,-142.5,3.75,-45,-102.5
1127,-476.25,-206.25,-18.75,3.75,-33.75,-142.5,7.5,-41.25,-100.83333333333333
1128,-461.25,-206.25,-11.25,7.5,-30,-138.75,11.25,-33.75,-95.83333333333333
1129,-498.75,-180,0,22.5,-22.5,-127.5,22.5,-18.75,-89.16666666666667
1130,-517.5,-180,-7.5,15,-30,-138.75,11.25,-26.25,-97.08333333333333
1131,-495,-198.75,-37.5,-18.75,-63.75,-168.75,-15,-52.5,-116.66666666666667
1132,-498.75,-183.75,-37.5,-26.25,-67.5,-172.5,-15,-52.5,-117.08333333333333
1133,-513.75,-172.5,-30,-18.75,-60,-165,-7.5,-41.25,-112.08333333333333
1134,-513.75,-198.75,-37.5,-30,-71.25,-176.25,-15,-48.75,-121.25
1135,-510,-232.5,-37.5,-33.75,-75,-180,-18.75,-48.75,-126.25
1136,-502.5,-228.75,-26.25,-26.25,-71.25,-168.75,-3.75,-41.25,-118.75
1137,-487.5,-183.75,-11.25,-18.75,-63.75,-161.25,3.75,-33.75,-106.25
1138,-487.5,-176.25,-11.25,-18.75,-63.75,-161.25,0,-33.75,-105.83333333333333
1139,-502.5,-198.75,-18.75,-26.25,-75,-172.5,-7.5,-45,-116.25
1140,-506.25,-183.75,-18.75,-22.5,-71.25,-176.25,-7.5,-45,-114.58333333333333
1141,-506.25,-172.5,-7.5,-15,-63.75,-168.75,-3.75,-37.5,-108.33333333333333
1142,-513.75,-206.25,-3.75,-7.5,-60,-168.75,-3.75,-33.75,-110.83333333333333
1143,-517.5,-240,-11.25,-15,-71.25,-176.25,-7.5,-41.25,-120.0
1144,-521.25,-240,-15,-18.75,-78.75,-180,-15,-48.75,-124.16666666666667
1145,-525,-232.5,-7.5,-11.25,-71.25,-176.25,-11.25,-45,-120.0
1146,-532.5,-232.5,0,-3.75,-63.75,-172.5,-7.5,-41.25,-117.08333333333333
1147,-540,-217.5,3.75,-7.5,-63.75,-172.5,-11.25,-45,-117.08333333333333
1148,-536.25,-198.75,0,-11.25,-67.5,-176.25,-15,-52.5,-117.5
1149,-532.5,-198.75,0,-11.25,-71.25,-180,-22.5,-63.75,-120.0
1150,-532.5,-210,11.25,3.75,-60,-176.25,-22.5,-63.75,-116.66666666666667
1151,-528.75,-221.25,18.75,11.25,-52.5,-172.5,-18.75,-63.75,-114.16666666666667
1152,-551.25,-232.5,30,26.25,-37.5,-157.5,-7.5,-60,-110.0
1153,-588.75,-225,48.75,48.75,-18.75,-146.25,3.75,-45,-102.5
1154,-562.5,-210,41.25,41.25,-30,-157.5,-11.25,-60,-105.41666666666667
1155,-536.25,-206.25,33.75,33.75,-37.5,-165,-18.75,-71.25,-107.5
1156,-551.25,-210,33.75,37.5,-30,-161.25,-15,-67.5,-107.08333333333333
1157,-555,-213.75,45,45,-22.5,-153.75,-11.25,-67.5,-103.75
1158,-573.75,-225,52.5,48.75,-18.75,-150,-11.25,-67.5,-105.0
1159,-581.25,-240,52.5,45,-18.75,-153.75,-15,-71.25,-109.16666666666667
1160,-566.25,-251.25,37.5,30,-33.75,-165,-30,-86.25,-118.33333333333333
1161,-577.5,-258.75,33.75,22.5,-41.25,-176.25,-37.5,-101.25,-126.25
1162,-611.25,-270,45,30,-33.75,-172.5,-37.5,-101.25,-127.91666666666667
1163,-622.5,-277.5,52.5,37.5,-26.25,-168.75,-33.75,-97.5,-126.25
1164,-607.5,-262.5,60,45,-22.5,-161.25,-30,-93.75,-119.16666666666667
1165,-600,-240,60,48.75,-18.75,-165,-33.75,-97.5,-116.25
1166,-600,-236.25,52.5,45,-26.25,-172.5,-41.25,-105,-120.41666666666667
1167,-607.5,-258.75,56.25,48.75,-22.5,-172.5,-41.25,-105,-122.5
1168,-626.25,-281.25,60,52.5,-18.75,-168.75,-37.5,-105,-125.0
1169,-626.25,-285,60,48.75,-18.75,-168.75,-41.25,-108.75,-126.66666666666667
1170,-648.75,-292.5,52.5,33.75,-30,-180,-52.5,-116.25,-137.08333333333334
1171,-652.5,-288.75,60,33.75,-26.25,-176.25,-48.75,-116.25,-135.0
1172,-626.25,-281.25,60,30,-30,-176.25,-48.75,-120,-132.5
1173,-641.25,-300,56.25,22.5,-33.75,-183.75,-52.5,-127.5,-140.0
1174,-671.25,-292.5,71.25,37.5,-22.5,-172.5,-45,-120,-135.0
1175,-671.25,-266.25,86.25,48.75,-15,-165,-41.25,-112.5,-126.25
1176,-648.75,-262.5,71.25,26.25,-37.5,-187.5,-63.75,-138.75,-137.91666666666666
1177,-645,-258.75,60,15,-48.75,-202.5,-75,-150,-145.0
1178,-671.25,-273.75,63.75,26.25,-37.5,-195,-67.5,-138.75,-143.75
1179,-682.5,-315,63.75,22.5,-37.5,-191.25,-63.75,-138.75,-149.16666666666666
1180,-660,-333.75,71.25,30,-26.25,-180,-56.25,-127.5,-142.5
1181,-645,-333.75,75,33.75,-26.25,-176.25,-52.5,-123.75,-138.75
1182,-645,-333.75,71.25,26.25,-30,-183.75,-60,-135,-143.33333333333334
1183,-652.5,-322.5,56.25,11.25,-45,-195,-71.25,-146.25,-151.66666666666666
1184,-675,-311.25,56.25,3.75,-48.75,-198.75,-75,-153.75,-155.83333333333334
1185,-701.25,-330,60,3.75,-48.75,-198.75,-75,-153.75,-160.41666666666666
1186,-686.25,-345,67.5,11.25,-45,-195,-75,-150,-157.5
1187,-663.75,-337.5,63.75,7.5,-48.75,-198.75,-75,-157.5,-156.66666666666666
1188,-671.25,-322.5,60,11.25,-48.75,-198.75,-75,-157.5,-155.83333333333334
1189,-678.75,-311.25,67.5,22.5,-37.5,-191.25,-67.5,-150,-149.58333333333334
1190,-671.25,-300,63.75,18.75,-37.5,-191.25,-71.25,-150,-148.75
1191,-667.5,-300,56.25,11.25,-45,-195,-75,-153.75,-152.08333333333334
1192,-660,-307.5,48.75,7.5,-52.5,-202.5,-78.75,-157.5,-155.83333333333334
1193,-663.75,-296.25,52.5,7.5,-52.5,-202.5,-78.75,-157.5,-154.58333333333334
1194,-697.5,-300,52.5,7.5,-52.5,-202.5,-78.75,-157.5,-158.75
1195,-712.5,-318.75,45,0,-56.25,-206.25,-82.5,-161.25,-165.83333333333334
1196,-701.25,-326.25,45,0,-52.5,-202.5,-78.75,-161.25,-164.16666666666666
1197,-686.25,-341.25,56.25,3.75,-48.75,-198.75,-75,-161.25,-161.25
1198,-682.5,-352.5,60,7.5,-45,-198.75,-75,-161.25,-160.83333333333334
1199,-693.75,-341.25,56.25,7.5,-48.75,-202.5,-78.75,-168.75,-163.33333333333334
1200,-697.5,-326.25,56.25,7.5,-45,-198.75,-78.75,-165,-160.83333333333334
1201,-686.25,-326.25,60,15,-37.5,-195,-75,-161.25,-156.25
1202,-678.75,-333.75,60,18.75,-33.75,-191.25,-71.25,-153.75,-153.75
1203,-686.25,-341.25,48.75,3.75,-48.75,-206.25,-82.5,-168.75,-164.58333333333334
1204,-693.75,-330,52.5,7.5,-45,-198.75,-78.75,-161.25,-160.83333333333334
1205,-671.25,-303.75,67.5,22.5,-26.25,-183.75,-63.75,-146.25,-145.0
1206,-652.5,-307.5,60,15,-37.5,-191.25,-75,-153.75,-149.16666666666666
1207,-682.5,-333.75,37.5,-7.5,-60,-213.75,-93.75,-176.25,-170.0
1208,-697.5,-348.75,45,-7.5,-56.25,-210,-93.75,-176.25,-171.66666666666666
1209,-697.5,-360,56.25,3.75,-45,-198.75,-78.75,-165,-165.0
1210,-697.5,-341.25,67.5,15,-30,-187.5,-63.75,-153.75,-154.58333333333334
1211,-693.75,-333.75,63.75,15,-33.75,-191.25,-71.25,-161.25,-156.25
1212,-693.75,-348.75,52.5,3.75,-48.75,-206.25,-86.25,-176.25,-167.08333333333334
1213,-701.25,-326.25,48.75,3.75,-48.75,-210,-90,-172.5,-166.25
1214,-686.25,-300,37.5,-3.75,-56.25,-213.75,-93.75,-176.25,-165.83333333333334
1215,-671.25,-315,26.25,-15,-67.5,-225,-101.25,-183.75,-172.5
1216,-656.25,-322.5,33.75,-11.25,-60,-217.5,-93.75,-176.25,-167.08333333333334
1217,-648.75,-303.75,45,-7.5,-56.25,-210,-90,-168.75,-160.0
1218,-656.25,-303.75,48.75,3.75,-45,-198.75,-82.5,-161.25,-155.0
1219,-667.5,-333.75,48.75,7.5,-37.5,-195,-75,-157.5,-156.66666666666666
1220,-675,-348.75,52.5,3.75,-41.25,-195,-75,-161.25,-160.0
1221,-682.5,-341.25,56.25,3.75,-41.25,-195,-75,-161.25,-159.58333333333334
1222,-675,-330,52.5,3.75,-45,-198.75,-78.75,-165,-159.58333333333334
1223,-660,-322.5,45,-3.75,-52.5,-206.25,-86.25,-172.5,-162.08333333333334
1224,-656.25,-307.5,48.75,-3.75,-52.5,-210,-90,-172.5,-160.41666666666666
1225,-637.5,-307.5,48.75,3.75,-48.75,-206.25,-86.25,-168.75,-155.83333333333334
1226,-645,-330,56.25,15,-37.5,-195,-75,-157.5,-152.08333333333334
1227,-678.75,-341.25,56.25,7.5,-45,-198.75,-78.75,-157.5,-159.58333333333334
1228,-667.5,-337.5,41.25,-7.5,-60,-213.75,-90,-172.5,-167.5
1229,-656.25,-337.5,37.5,-7.5,-56.25,-210,-90,-172.5,-165.83333333333334
1230,-690,-337.5,45,-3.75,-48.75,-206.25,-86.25,-165,-165.83333333333334
1231,-697.5,-341.25,41.25,-15,-60,-213.75,-93.75,-172.5,-172.5
1232,-663.75,-341.25,30,-22.5,-67.5,-221.25,-101.25,-183.75,-174.58333333333334
1233,-648.75,-337.5,30,-26.25,-71.25,-225,-105,-187.5,-174.58333333333334
1234,-663.75,-333.75,41.25,-18.75,-63.75,-217.5,-93.75,-180,-170.0
1235,-686.25,-322.5,48.75,-11.25,-56.25,-210,-90,-172.5,-166.66666666666666
1236,-697.5,-322.5,37.5,-22.5,-63.75,-221.25,-101.25,-187.5,-175.41666666666666
1237,-693.75,-315,26.25,-26.25,-71.25,-228.75,-105,-191.25,-178.33333333333334
1238,-678.75,-322.5,33.75,-15,-60,-217.5,-93.75,-176.25,-170.0
1239,-648.75,-345,45,-7.5,-52.5,-210,-86.25,-168.75,-163.75
1240,-652.5,-352.5,45,-7.5,-52.5,-206.25,-82.5,-168.75,-164.16666666666666
1241,-667.5,-360,37.5,-15,-60,-213.75,-90,-176.25,-171.66666666666666
1242,-671.25,-363.75,26.25,-30,-71.25,-225,-101.25,-183.75,-180.0
1243,-690,-367.5,22.5,-37.5,-78.75,-232.5,-105,-191.25,-186.66666666666666
1244,-708.75,-360,30,-30,-71.25,-225,-97.5,-183.75,-182.91666666666666
1245,-693.75,-341.25,37.5,-22.5,-63.75,-213.75,-90,-176.25,-173.75
1246,-648.75,-315,33.75,-33.75,-71.25,-225,-97.5,-187.5,-171.66666666666666
1247,-633.75,-281.25,18.75,-48.75,-90,-240,-116.25,-202.5,-177.08333333333334
1248,-648.75,-273.75,15,-48.75,-90,-243.75,-116.25,-206.25,-179.16666666666666
1249,-660,-288.75,33.75,-26.25,-71.25,-225,-97.5,-187.5,-169.16666666666666
1250,-667.5,-292.5,56.25,0,-48.75,-202.5,-75,-165,-155.0
1251,-671.25,-307.5,60,0,-45,-202.5,-75,-161.25,-155.83333333333334
1252,-656.25,-318.75,52.5,-11.25,-56.25,-210,-82.5,-172.5,-161.66666666666666
1253,-648.75,-322.5,60,-3.75,-48.75,-202.5,-78.75,-168.75,-157.08333333333334
1254,-652.5,-326.25,63.75,0,-45,-198.75,-75,-165,-155.41666666666666
1255,-671.25,-326.25,63.75,-7.5,-52.5,-202.5,-78.75,-168.75,-160.41666666666666
1256,-682.5,-326.25,63.75,-11.25,-56.25,-206.25,-78.75,-172.5,-163.33333333333334
1257,-652.5,-311.25,60,-15,-60,-213.75,-86.25,-180,-162.08333333333334
1258,-618.75,-281.25,75,-3.75,-48.75,-202.5,-75,-172.5,-147.5
1259,-630,-285,78.75,3.75,-45,-198.75,-75,-172.5,-147.08333333333334
1260,-641.25,-300,75,3.75,-48.75,-206.25,-82.5,-176.25,-152.91666666666666
1261,-645,-288.75,82.5,15,-37.5,-198.75,-75,-168.75,-146.25
1262,-630,-270,86.25,22.5,-33.75,-195,-71.25,-161.25,-139.16666666666666
1263,-615,-270,78.75,15,-41.25,-202.5,-78.75,-168.75,-142.5
1264,-645,-277.5,82.5,18.75,-33.75,-195,-67.5,-157.5,-141.66666666666666
1265,-663.75,-273.75,93.75,30,-26.25,-183.75,-56.25,-146.25,-136.25
1266,-633.75,-262.5,93.75,30,-22.5,-180,-52.5,-142.5,-130.0
1267,-633.75,-266.25,93.75,26.25,-26.25,-183.75,-56.25,-146.25,-132.5
1268,-648.75,-262.5,78.75,7.5,-41.25,-195,-71.25,-161.25,-143.75
1269,-652.5,-240,60,-11.25,-56.25,-210,-82.5,-172.5,-151.66666666666666
1270,-641.25,-240,60,-7.5,-52.5,-202.5,-75,-165,-147.08333333333334
1271,-626.25,-258.75,63.75,0,-41.25,-191.25,-60,-157.5,-141.25
1272,-603.75,-243.75,56.25,3.75,-37.5,-187.5,-60,-150,-135.83333333333334
1273,-573.75,-217.5,48.75,7.5,-30,-183.75,-52.5,-142.5,-127.08333333333333
1274,-562.5,-217.5,37.5,11.25,-26.25,-180,-45,-131.25,-123.75
1275,-562.5,-243.75,30,3.75,-26.25,-180,-45,-131.25,-128.33333333333334
1276,-585,-281.25,26.25,3.75,-26.25,-180,-45,-127.5,-135.0
1277,-603.75,-296.25,15,-3.75,-33.75,-183.75,-48.75,-131.25,-142.91666666666666
1278,-585,-273.75,0,-15,-48.75,-195,-60,-142.5,-146.66666666666666
1279,-577.5,-251.25,-11.25,-37.5,-67.5,-213.75,-78.75,-157.5,-155.0
1280,-585,-251.25,-7.5,-41.25,-67.5,-213.75,-75,-157.5,-155.41666666666666
1281,-570,-262.5,0,-41.25,-63.75,-206.25,-71.25,-153.75,-152.08333333333334
1282,-577.5,-266.25,-7.5,-48.75,-71.25,-213.75,-78.75,-157.5,-157.91666666666666
1283,-592.5,-281.25,-11.25,-52.5,-78.75,-221.25,-82.5,-165,-165.0
1284,-592.5,-300,7.5,-37.5,-63.75,-210,-71.25,-153.75,-157.91666666666666
1285,-607.5,-292.5,15,-30,-63.75,-210,-75,-153.75,-157.5
1286,-603.75,-288.75,7.5,-41.25,-75,-225,-86.25,-165,-164.16666666666666
1287,-592.5,-303.75,7.5,-45,-78.75,-225,-90,-168.75,-166.25
1288,-603.75,-315,11.25,-45,-82.5,-228.75,-93.75,-168.75,-169.58333333333334
1289,-615,-315,11.25,-48.75,-90,-236.25,-101.25,-180,-175.0
1290,-622.5,-307.5,3.75,-60,-101.25,-247.5,-112.5,-191.25,-182.08333333333334
1291,-645,-318.75,0,-71.25,-108.75,-251.25,-116.25,-198.75,-190.0
1292,-648.75,-333.75,0,-71.25,-105,-251.25,-116.25,-195,-191.25
1293,-652.5,-333.75,3.75,-71.25,-105,-247.5,-112.5,-195,-190.41666666666666
1294,-671.25,-348.75,0,-82.5,-120,-258.75,-120,-206.25,-200.83333333333334
1295,-645,-356.25,0,-86.25,-127.5,-266.25,-131.25,-213.75,-202.91666666666666
1296,-600,-333.75,15,-63.75,-101.25,-247.5,-108.75,-195,-181.66666666666666
1297,-596.25,-326.25,26.25,-48.75,-90,-236.25,-97.5,-183.75,-172.5
1298,-633.75,-348.75,15,-60,-105,-255,-112.5,-195,-188.33333333333334
1299,-641.25,-352.5,3.75,-78.75,-123.75,-270,-131.25,-210,-200.41666666666666
1300,-637.5,-345,-3.75,-86.25,-131.25,-273.75,-135,-213.75,-202.91666666666666
1301,-648.75,-360,-11.25,-97.5,-138.75,-281.25,-142.5,-217.5,-210.83333333333334
1302,-648.75,-378.75,-18.75,-101.25,-142.5,-288.75,-150,-225,-217.08333333333334
1303,-645,-375,-26.25,-108.75,-150,-300,-157.5,-232.5,-221.66666666666666
1304,-667.5,-375,-22.5,-108.75,-150,-296.25,-153.75,-236.25,-223.33333333333334
1305,-720,-378.75,-3.75,-90,-135,-273.75,-135,-217.5,-217.08333333333334
1306,-723.75,-382.5,15,-75,-116.25,-258.75,-120,-202.5,-207.08333333333334
1307,-671.25,-382.5,0,-90,-131.25,-277.5,-135,-217.5,-211.66666666666666
1308,-660,-378.75,-18.75,-105,-150,-292.5,-153.75,-236.25,-221.66666666666666
1309,-656.25,-356.25,-15,-97.5,-146.25,-292.5,-150,-228.75,-215.83333333333334
1310,-630,-330,-7.5,-86.25,-131.25,-281.25,-138.75,-217.5,-202.5
1311,-633.75,-337.5,-18.75,-97.5,-142.5,-292.5,-150,-225,-210.83333333333334
1312,-645,-352.5,-18.75,-101.25,-146.25,-292.5,-150,-225,-214.58333333333334
1313,-652.5,-360,-15,-90,-138.75,-281.25,-138.75,-217.5,-210.41666666666666
1314,-663.75,-363.75,-7.5,-86.25,-127.5,-273.75,-131.25,-206.25,-206.66666666666666
1315,-663.75,-371.25,-15,-97.5,-142.5,-288.75,-146.25,-221.25,-216.25
1316,-652.5,-378.75,-26.25,-112.5,-153.75,-300,-153.75,-228.75,-222.91666666666666
1317,-652.5,-375,-18.75,-105,-146.25,-292.5,-146.25,-221.25,-217.5
1318,-648.75,-367.5,-7.5,-97.5,-138.75,-281.25,-138.75,-217.5,-210.83333333333334
1319,-648.75,-371.25,-11.25,-101.25,-146.25,-288.75,-146.25,-228.75,-215.83333333333334
1320,-648.75,-371.25,-18.75,-105,-153.75,-300,-161.25,-240,-222.08333333333334
1321,-626.25,-363.75,-11.25,-97.5,-157.5,-311.25,-172.5,-251.25,-221.25
1322,-603.75,-360,18.75,-67.5,-150,-318.75,-183.75,-262.5,-214.16666666666666
1323,-615,-393.75,48.75,-45,-161.25,-345,-213.75,-292.5,-224.16666666666666
1324,-630,-446.25,93.75,-15,-168.75,-375,-251.25,-333.75,-236.25
1325,-630,-491.25,138.75,11.25,-180,-405,-288.75,-371.25,-246.25
1326,-626.25,-502.5,183.75,52.5,-172.5,-412.5,-303.75,-386.25,-240.83333333333334
1327,-630,-487.5,225,108.75,-138.75,-393.75,-288.75,-371.25,-219.58333333333334
1328,-603.75,-438.75,258.75,168.75,-93.75,-367.5,-270,-356.25,-189.16666666666666
1329,-551.25,-363.75,288.75,232.5,-41.25,-322.5,-232.5,-326.25,-146.25
1330,-525,-318.75,326.25,315,41.25,-247.5,-161.25,-262.5,-92.5
1331,-495,-281.25,367.5,401.25,131.25,-157.5,-78.75,-187.5,-33.333333333333336
1332,-461.25,-206.25,378.75,446.25,195,-90,-7.5,-120,15.0
1333,-397.5,-101.25,363.75,491.25,255,-15,75,-41.25,70.0
1334,-311.25,3.75,345,543.75,337.5,82.5,168.75,52.5,135.83333333333334
1335,-228.75,120,326.25,588.75,423.75,187.5,277.5,153.75,205.41666666666666
1336,-172.5,243.75,296.25,600,506.25,303.75,405,281.25,273.75
1337,-150,378.75,247.5,600,592.5,442.5,562.5,438.75,345.8333333333333
1338,-127.5,555,232.5,648.75,723.75,607.5,738.75,607.5,442.9166666666667
1339,-71.25,753.75,206.25,690,840,768.75,911.25,776.25,541.6666666666666
1340,0,948.75,105,652.5,918.75,922.5,1095,967.5,623.3333333333334
1341,41.25,1121.25,-22.5,581.25,982.5,1072.5,1275,1155,689.5833333333334
1342,60,1233.75,-131.25,510,1038.75,1203.75,1425,1297.5,737.5
1343,41.25,1290,-217.5,393.75,1068.75,1305,1545,1410,759.5833333333334
1344,3.75,1293.75,-240,337.5,1117.5,1402.5,1635,1473.75,780.4166666666666
1345,-56.25,1230,-210,375,1200,1477.5,1680,1473.75,796.6666666666666
1346,-138.75,1158.75,-225,326.25,1215,1496.25,1672.5,1440,771.6666666666666
1347,-217.5,1091.25,-288.75,183.75,1147.5,1443.75,1612.5,1372.5,705.0
1348,-300,948.75,-315,48.75,1027.5,1308.75,1466.25,1230,601.6666666666666
1349,-427.5,746.25,-292.5,-56.25,862.5,1087.5,1233.75,1012.5,462.9166666666667
1350,-551.25,547.5,-273.75,-161.25,656.25,817.5,975,791.25,311.25
1351,-652.5,363.75,-285,-300,390,510,693.75,566.25,142.91666666666666
1352,-750,225,-300,-453.75,120,210,423.75,345,-20.0
1353,-817.5,90,-322.5,-577.5,-93.75,-22.5,206.25,157.5,-153.33333333333334
1354,-836.25,-60,-318.75,-600,-183.75,-153.75,56.25,3.75,-232.5
1355,-847.5,-187.5,-292.5,-551.25,-187.5,-202.5,-22.5,-93.75,-265.0
1356,-843.75,-232.5,-281.25,-495,-161.25,-198.75,-37.5,-123.75,-263.75
1357,-783.75,-195,-266.25,-416.25,-112.5,-157.5,-3.75,-97.5,-225.83333333333334
1358,-723.75,-187.5,-262.5,-371.25,-101.25,-153.75,-3.75,-101.25,-211.66666666666666
1359,-723.75,-232.5,-270,-367.5,-142.5,-195,-41.25,-135,-234.16666666666666
1360,-738.75,-262.5,-251.25,-348.75,-172.5,-225,-60,-142.5,-244.58333333333334
1361,-716.25,-273.75,-225,-303.75,-168.75,-225,-60,-138.75,-234.58333333333334
1362,-686.25,-247.5,-195,-251.25,-142.5,-217.5,-52.5,-135,-214.16666666666666
1363,-656.25,-213.75,-172.5,-202.5,-116.25,-202.5,-45,-127.5,-192.91666666666666
1364,-607.5,-210,-150,-157.5,-86.25,-187.5,-41.25,-131.25,-174.58333333333334
1365,-588.75,-202.5,-101.25,-97.5,-48.75,-165,-26.25,-120,-150.0
1366,-641.25,-176.25,-41.25,-33.75,0,-127.5,3.75,-97.5,-123.75
1367,-630,-165,-22.5,-18.75,0,-135,-7.5,-112.5,-121.25
1368,-570,-202.5,-30,-37.5,-30,-168.75,-41.25,-142.5,-135.83333333333334
1369,-547.5,-236.25,-7.5,-7.5,-11.25,-157.5,-33.75,-135,-126.25
1370,-551.25,-240,7.5,11.25,0,-153.75,-30,-131.25,-120.83333333333333
1371,-555,-251.25,0,-3.75,-18.75,-172.5,-48.75,-146.25,-132.91666666666666
1372,-562.5,-281.25,-3.75,-7.5,-30,-183.75,-60,-153.75,-142.5
1373,-581.25,-288.75,0,-11.25,-33.75,-191.25,-63.75,-161.25,-147.91666666666666
1374,-630,-288.75,7.5,-3.75,-33.75,-187.5,-63.75,-161.25,-151.25
1375,-660,-300,15,0,-33.75,-187.5,-60,-157.5,-153.75
1376,-615,-311.25,3.75,-15,-48.75,-206.25,-78.75,-176.25,-160.83333333333334
1377,-581.25,-315,-3.75,-30,-63.75,-221.25,-93.75,-191.25,-166.66666666666666
1378,-603.75,-318.75,3.75,-22.5,-63.75,-217.5,-90,-187.5,-166.66666666666666
1379,-603.75,-307.5,7.5,-18.75,-60,-217.5,-90,-187.5,-164.16666666666666
1380,-592.5,-296.25,7.5,-18.75,-63.75,-221.25,-93.75,-191.25,-163.33333333333334
1381,-588.75,-285,11.25,-11.25,-60,-221.25,-90,-187.5,-159.16666666666666
1382,-581.25,-270,11.25,-3.75,-56.25,-217.5,-90,-183.75,-154.58333333333334
1383,-555,-266.25,3.75,-11.25,-63.75,-225,-93.75,-187.5,-155.41666666666666
1384,-536.25,-273.75,-3.75,-18.75,-71.25,-228.75,-101.25,-191.25,-158.33333333333334
1385,-547.5,-273.75,-3.75,-15,-71.25,-228.75,-97.5,-191.25,-158.75
1386,-558.75,-273.75,-3.75,-15,-67.5,-228.75,-97.5,-187.5,-159.16666666666666
1387,-570,-288.75,3.75,-7.5,-63.75,-221.25,-90,-183.75,-157.91666666666666
1388,-585,-303.75,11.25,-3.75,-60,-217.5,-86.25,-180,-158.33333333333334
1389,-585,-303.75,15,0,-60,-213.75,-82.5,-180,-156.66666666666666
1390,-566.25,-277.5,11.25,0,-60,-217.5,-86.25,-183.75,-153.33333333333334
1391,-562.5,-266.25,7.5,0,-60,-217.5,-86.25,-183.75,-152.08333333333334
1392,-562.5,-273.75,7.5,7.5,-60,-217.5,-82.5,-176.25,-150.83333333333334
1393,-551.25,-258.75,15,15,-52.5,-210,-78.75,-172.5,-143.75
1394,-536.25,-240,11.25,18.75,-48.75,-210,-75,-172.5,-139.16666666666666
1395,-543.75,-258.75,7.5,15,-56.25,-213.75,-82.5,-176.25,-145.41666666666666
1396,-521.25,-266.25,7.5,15,-52.5,-210,-78.75,-172.5,-142.08333333333334
1397,-517.5,-270,7.5,18.75,-48.75,-210,-75,-168.75,-140.41666666666666
1398,-532.5,-262.5,15,26.25,-41.25,-202.5,-67.5,-161.25,-136.25
1399,-525,-251.25,15,30,-41.25,-198.75,-63.75,-157.5,-132.5
1400,-532.5,-262.5,-3.75,15,-52.5,-210,-75,-176.25,-144.16666666666666
1401,-536.25,-281.25,-11.25,3.75,-63.75,-221.25,-86.25,-187.5,-153.75
1402,-536.25,-288.75,-3.75,3.75,-63.75,-217.5,-82.5,-187.5,-152.91666666666666
1403,-547.5,-277.5,7.5,18.75,-52.5,-206.25,-71.25,-176.25,-145.0
1404,-551.25,-266.25,0,15,-56.25,-213.75,-78.75,-180,-147.91666666666666
1405,-536.25,-240,7.5,33.75,-37.5,-198.75,-63.75,-168.75,-133.75
1406,-513.75,-221.25,7.5,45,-30,-191.25,-52.5,-157.5,-123.75
1407,-495,-232.5,-11.25,26.25,-45,-206.25,-71.25,-172.5,-134.16666666666666
1408,-498.75,-251.25,-11.25,22.5,-48.75,-206.25,-71.25,-172.5,-137.5
1409,-536.25,-270,7.5,45,-26.25,-187.5,-48.75,-150,-129.58333333333334
1410,-570,-266.25,30,67.5,-3.75,-165,-26.25,-127.5,-117.91666666666667
1411,-536.25,-258.75,15,60,-15,-172.5,-37.5,-138.75,-120.41666666666667
1412,-465,-236.25,-3.75,37.5,-33.75,-191.25,-56.25,-157.5,-122.91666666666667
1413,-461.25,-225,-7.5,33.75,-37.5,-195,-63.75,-165,-124.58333333333333
1414,-491.25,-247.5,7.5,48.75,-22.5,-180,-45,-146.25,-119.58333333333333
1415,-513.75,-243.75,18.75,63.75,-7.5,-168.75,-33.75,-135,-113.33333333333333
1416,-532.5,-202.5,22.5,71.25,-3.75,-165,-30,-135,-108.33333333333333
1417,-502.5,-183.75,7.5,63.75,-11.25,-176.25,-41.25,-142.5,-109.58333333333333
1418,-476.25,-198.75,0,60,-15,-180,-45,-146.25,-111.25
1419,-498.75,-217.5,0,63.75,-15,-176.25,-41.25,-142.5,-114.16666666666667
1420,-495,-213.75,3.75,71.25,-7.5,-165,-30,-131.25,-107.5
1421,-465,-213.75,7.5,75,0,-161.25,-22.5,-123.75,-100.41666666666667
1422,-480,-221.25,3.75,75,0,-161.25,-26.25,-123.75,-103.75
1423,-498.75,-225,-11.25,60,-15,-176.25,-37.5,-138.75,-115.83333333333333
1424,-468.75,-228.75,-18.75,45,-26.25,-183.75,-48.75,-146.25,-119.58333333333333
1425,-457.5,-240,-11.25,52.5,-18.75,-180,-37.5,-142.5,-115.0
1426,-465,-247.5,0,67.5,-7.5,-168.75,-30,-135,-109.58333333333333
1427,-465,-213.75,3.75,75,-3.75,-161.25,-22.5,-131.25,-102.08333333333333
1428,-435,-168.75,3.75,78.75,0,-157.5,-18.75,-127.5,-91.66666666666667
1429,-423.75,-172.5,0,78.75,0,-161.25,-18.75,-123.75,-91.25
1430,-427.5,-180,0,82.5,0,-157.5,-18.75,-120,-91.25
1431,-427.5,-183.75,-7.5,78.75,-3.75,-165,-18.75,-120,-94.16666666666667
1432,-435,-198.75,-7.5,75,-7.5,-165,-18.75,-120,-97.5
1433,-446.25,-202.5,-7.5,75,-7.5,-161.25,-18.75,-120,-98.75
1434,-450,-191.25,-7.5,75,-7.5,-161.25,-18.75,-120,-97.91666666666667
1435,-446.25,-187.5,-18.75,63.75,-15,-172.5,-30,-131.25,-104.16666666666667
1436,-450,-195,-26.25,52.5,-26.25,-180,-37.5,-138.75,-111.25
1437,-457.5,-191.25,-18.75,56.25,-26.25,-176.25,-33.75,-135,-109.16666666666667
1438,-453.75,-183.75,-11.25,63.75,-18.75,-168.75,-26.25,-127.5,-102.91666666666667
1439,-450,-195,-11.25,67.5,-18.75,-172.5,-22.5,-127.5,-103.33333333333333
1440,-450,-210,-7.5,67.5,-15,-165,-18.75,-120,-102.08333333333333
1441,-446.25,-206.25,0,82.5,-3.75,-157.5,-3.75,-105,-93.33333333333333
1442,-427.5,-187.5,-15,75,-15,-168.75,-11.25,-112.5,-95.83333333333333
1443,-405,-176.25,-22.5,60,-26.25,-176.25,-18.75,-116.25,-97.91666666666667
1444,-408.75,-183.75,-26.25,52.5,-33.75,-183.75,-22.5,-120,-102.91666666666667
1445,-408.75,-180,-26.25,52.5,-33.75,-183.75,-26.25,-116.25,-102.5
1446,-401.25,-168.75,-33.75,45,-45,-191.25,-33.75,-120,-105.41666666666667
1447,-378.75,-153.75,-37.5,37.5,-52.5,-198.75,-41.25,-127.5,-105.83333333333333
1448,-397.5,-180,-45,30,-63.75,-206.25,-45,-135,-115.83333333333333
1449,-457.5,-236.25,-41.25,26.25,-63.75,-206.25,-41.25,-131.25,-127.91666666666667
1450,-461.25,-243.75,-26.25,33.75,-56.25,-198.75,-33.75,-123.75,-123.33333333333333
1451,-435,-213.75,-22.5,37.5,-60,-198.75,-33.75,-123.75,-116.66666666666667
1452,-401.25,-180,-26.25,33.75,-63.75,-202.5,-33.75,-123.75,-110.83333333333333
1453,-375,-150,-26.25,37.5,-63.75,-206.25,-33.75,-120,-104.16666666666667
1454,-371.25,-142.5,-30,37.5,-67.5,-210,-37.5,-120,-104.58333333333333
1455,-390,-168.75,-37.5,30,-75,-213.75,-37.5,-120,-112.5
1456,-408.75,-187.5,-26.25,33.75,-67.5,-206.25,-30,-108.75,-111.25
1457,-401.25,-176.25,-26.25,30,-75,-210,-33.75,-112.5,-111.66666666666667
1458,-382.5,-165,-41.25,11.25,-90,-225,-48.75,-123.75,-118.33333333333333
1459,-390,-157.5,-41.25,11.25,-97.5,-228.75,-48.75,-123.75,-119.58333333333333
1460,-416.25,-161.25,-37.5,7.5,-101.25,-228.75,-52.5,-127.5,-124.16666666666667
1461,-427.5,-180,-37.5,0,-105,-236.25,-52.5,-127.5,-129.58333333333334
1462,-416.25,-183.75,-33.75,3.75,-105,-232.5,-48.75,-123.75,-126.66666666666667
1463,-408.75,-183.75,-26.25,7.5,-105,-228.75,-45,-120,-123.33333333333333
1464,-431.25,-195,-26.25,3.75,-108.75,-236.25,-48.75,-123.75,-129.58333333333334
1465,-435,-191.25,-30,0,-112.5,-243.75,-56.25,-127.5,-132.91666666666666
1466,-416.25,-176.25,-30,3.75,-116.25,-243.75,-56.25,-123.75,-128.75
1467,-435,-187.5,-26.25,3.75,-116.25,-243.75,-52.5,-120,-130.83333333333334
1468,-427.5,-183.75,-33.75,-3.75,-120,-247.5,-56.25,-123.75,-132.91666666666666
1469,-382.5,-157.5,-37.5,-7.5,-127.5,-255,-60,-127.5,-128.33333333333334
1470,-352.5,-146.25,-41.25,-15,-138.75,-262.5,-71.25,-138.75,-129.58333333333334
1471,-356.25,-153.75,-41.25,-18.75,-138.75,-266.25,-75,-138.75,-132.08333333333334
1472,-371.25,-165,-37.5,-18.75,-142.5,-262.5,-71.25,-135,-133.75
1473,-382.5,-168.75,-30,-18.75,-142.5,-262.5,-67.5,-135,-134.16666666666666
1474,-397.5,-168.75,-30,-18.75,-142.5,-266.25,-71.25,-138.75,-137.08333333333334
1475,-408.75,-172.5,-22.5,-15,-138.75,-262.5,-63.75,-135,-135.41666666666666
1476,-405,-161.25,-18.75,-7.5,-135,-262.5,-67.5,-138.75,-132.91666666666666
1477,-393.75,-120,-26.25,-11.25,-138.75,-270,-78.75,-150,-132.08333333333334
1478,-393.75,-112.5,-22.5,0,-135,-270,-75,-146.25,-128.33333333333334
1479,-416.25,-150,-11.25,7.5,-123.75,-258.75,-67.5,-138.75,-128.75
1480,-431.25,-172.5,-7.5,7.5,-123.75,-262.5,-71.25,-142.5,-133.75
1481,-431.25,-176.25,-3.75,15,-120,-255,-67.5,-146.25,-131.66666666666666
1482,-416.25,-176.25,3.75,22.5,-112.5,-251.25,-67.5,-142.5,-126.66666666666667
1483,-408.75,-187.5,7.5,22.5,-112.5,-255,-71.25,-150,-128.33333333333334
1484,-435,-217.5,15,26.25,-108.75,-255,-71.25,-153.75,-133.33333333333334
1485,-468.75,-240,22.5,33.75,-101.25,-251.25,-67.5,-153.75,-136.25
1486,-446.25,-210,22.5,33.75,-101.25,-247.5,-71.25,-161.25,-131.25
1487,-453.75,-172.5,37.5,48.75,-86.25,-240,-63.75,-153.75,-120.41666666666667
1488,-472.5,-157.5,41.25,52.5,-82.5,-236.25,-63.75,-153.75,-119.16666666666667
1489,-453.75,-165,30,45,-93.75,-247.5,-75,-165,-125.0
1490,-461.25,-202.5,33.75,52.5,-86.25,-247.5,-75,-165,-127.91666666666667
1491,-476.25,-225,33.75,52.5,-86.25,-251.25,-78.75,-172.5,-133.75
1492,-487.5,-217.5,33.75,48.75,-86.25,-251.25,-86.25,-180,-136.25
1493,-472.5,-195,41.25,56.25,-78.75,-240,-78.75,-172.5,-126.66666666666667
1494,-457.5,-198.75,48.75,67.5,-67.5,-232.5,-71.25,-168.75,-120.0
1495,-480,-232.5,52.5,67.5,-71.25,-232.5,-75,-172.5,-127.08333333333333
1496,-483.75,-251.25,48.75,60,-71.25,-236.25,-78.75,-176.25,-132.08333333333334
1497,-495,-251.25,52.5,60,-71.25,-236.25,-75,-176.25,-132.5
1498,-513.75,-232.5,52.5,56.25,-75,-240,-82.5,-183.75,-135.41666666666666
1499,-498.75,-221.25,48.75,48.75,-78.75,-243.75,-86.25,-191.25,-135.83333333333334
1500,-480,-232.5,48.75,52.5,-78.75,-247.5,-86.25,-195,-135.41666666666666
1501,-472.5,-225,60,67.5,-67.5,-236.25,-82.5,-191.25,-127.5
1502,-480,-217.5,63.75,71.25,-67.5,-240,-82.5,-191.25,-127.08333333333333
1503,-495,-243.75,48.75,52.5,-82.5,-255,-97.5,-206.25,-142.08333333333334
1504,-498.75,-255,45,48.75,-86.25,-258.75,-101.25,-210,-146.25
1505,-498.75,-243.75,41.25,45,-90,-258.75,-105,-213.75,-147.08333333333334
1506,-517.5,-240,37.5,37.5,-93.75,-266.25,-108.75,-217.5,-152.08333333333334
1507,-543.75,-240,37.5,33.75,-93.75,-270,-112.5,-221.25,-156.66666666666666
1508,-540,-236.25,45,33.75,-93.75,-266.25,-112.5,-225,-155.0
1509,-528.75,-247.5,41.25,26.25,-101.25,-273.75,-116.25,-228.75,-158.75
1510,-521.25,-258.75,41.25,26.25,-97.5,-270,-116.25,-225,-157.91666666666666
1511,-521.25,-277.5,48.75,33.75,-93.75,-270,-112.5,-225,-157.5
1512,-540,-292.5,48.75,33.75,-93.75,-270,-116.25,-225,-161.66666666666666
1513,-547.5,-277.5,56.25,41.25,-86.25,-262.5,-108.75,-221.25,-156.25
1514,-540,-251.25,48.75,37.5,-90,-270,-112.5,-221.25,-155.41666666666666
1515,-562.5,-247.5,45,33.75,-93.75,-270,-116.25,-225,-159.58333333333334
1516,-596.25,-251.25,48.75,41.25,-86.25,-266.25,-112.5,-217.5,-160.0
1517,-547.5,-262.5,33.75,26.25,-101.25,-277.5,-123.75,-228.75,-164.58333333333334
1518,-495,-273.75,15,7.5,-120,-296.25,-138.75,-251.25,-172.5
1519,-521.25,-281.25,22.5,15,-112.5,-285,-131.25,-243.75,-170.83333333333334
1520,-562.5,-300,37.5,22.5,-101.25,-273.75,-120,-232.5,-170.0
1521,-573.75,-303.75,41.25,18.75,-101.25,-273.75,-123.75,-236.25,-172.5
1522,-547.5,-277.5,41.25,22.5,-101.25,-273.75,-120,-236.25,-165.83333333333334
1523,-528.75,-266.25,48.75,30,-90,-266.25,-112.5,-228.75,-157.08333333333334
1524,-532.5,-262.5,52.5,33.75,-90,-262.5,-112.5,-225,-155.41666666666666
1525,-517.5,-240,48.75,33.75,-93.75,-266.25,-116.25,-228.75,-153.33333333333334
1526,-513.75,-240,41.25,26.25,-97.5,-277.5,-123.75,-236.25,-157.91666666666666
1527,-536.25,-270,37.5,26.25,-101.25,-277.5,-123.75,-236.25,-164.58333333333334
1528,-525,-273.75,37.5,26.25,-97.5,-277.5,-123.75,-236.25,-163.33333333333334
1529,-517.5,-266.25,37.5,22.5,-101.25,-277.5,-127.5,-240,-163.33333333333334
1530,-532.5,-258.75,33.75,22.5,-105,-281.25,-127.5,-240,-165.41666666666666
1531,-536.25,-247.5,26.25,15,-108.75,-285,-131.25,-243.75,-167.91666666666666
1532,-536.25,-240,15,7.5,-116.25,-292.5,-138.75,-251.25,-172.5
1533,-540,-247.5,11.25,0,-120,-296.25,-142.5,-258.75,-177.08333333333334
1534,-532.5,-273.75,26.25,11.25,-108.75,-281.25,-131.25,-243.75,-170.41666666666666
1535,-517.5,-307.5,52.5,41.25,-82.5,-255,-105,-221.25,-155.0
1536,-513.75,-300,60,48.75,-71.25,-247.5,-97.5,-213.75,-148.33333333333334
1537,-498.75,-258.75,48.75,45,-82.5,-258.75,-105,-225,-148.33333333333334
1538,-502.5,-258.75,41.25,37.5,-90,-266.25,-112.5,-228.75,-153.33333333333334
1539,-543.75,-281.25,52.5,48.75,-75,-255,-101.25,-217.5,-152.5
1540,-573.75,-288.75,60,56.25,-71.25,-247.5,-93.75,-210,-152.08333333333334
1541,-551.25,-270,52.5,45,-78.75,-255,-101.25,-217.5,-152.91666666666666
1542,-510,-247.5,33.75,26.25,-97.5,-277.5,-123.75,-240,-159.58333333333334
1543,-506.25,-247.5,15,7.5,-116.25,-292.5,-138.75,-255,-170.41666666666666
1544,-525,-273.75,11.25,3.75,-120,-296.25,-142.5,-262.5,-178.33333333333334
1545,-536.25,-307.5,18.75,7.5,-112.5,-288.75,-135,-258.75,-179.16666666666666
1546,-525,-300,37.5,26.25,-97.5,-273.75,-120,-240,-165.83333333333334
1547,-495,-228.75,33.75,22.5,-97.5,-277.5,-127.5,-247.5,-157.5
1548,-487.5,-187.5,22.5,11.25,-108.75,-288.75,-138.75,-255,-159.16666666666666
1549,-498.75,-236.25,26.25,18.75,-105,-285,-135,-251.25,-162.91666666666666
1550,-510,-300,37.5,33.75,-90,-273.75,-120,-236.25,-162.08333333333334
1551,-528.75,-322.5,37.5,33.75,-93.75,-270,-120,-232.5,-166.25
1552,-513.75,-300,30,26.25,-97.5,-270,-120,-236.25,-164.58333333333334
1553,-491.25,-273.75,18.75,15,-108.75,-285,-131.25,-251.25,-167.5
1554,-487.5,-258.75,18.75,18.75,-105,-281.25,-127.5,-247.5,-163.33333333333334
1555,-506.25,-251.25,33.75,30,-90,-266.25,-116.25,-232.5,-155.41666666666666
1556,-495,-258.75,33.75,30,-90,-266.25,-112.5,-232.5,-154.58333333333334
1557,-491.25,-288.75,22.5,11.25,-105,-277.5,-123.75,-247.5,-166.66666666666666
1558,-517.5,-300,22.5,11.25,-108.75,-281.25,-127.5,-251.25,-172.5
1559,-528.75,-288.75,30,18.75,-105,-277.5,-123.75,-247.5,-169.16666666666666
1560,-517.5,-270,30,18.75,-101.25,-273.75,-123.75,-247.5,-165.0
1561,-502.5,-243.75,30,22.5,-97.5,-273.75,-123.75,-243.75,-159.16666666666666
1562,-495,-225,30,26.25,-97.5,-273.75,-120,-240,-155.0
1563,-495,-243.75,18.75,18.75,-105,-281.25,-127.5,-247.5,-162.5
1564,-495,-270,11.25,7.5,-112.5,-288.75,-135,-255,-170.83333333333334
1565,-476.25,-273.75,3.75,0,-123.75,-296.25,-146.25,-262.5,-175.0
1566,-480,-273.75,3.75,-3.75,-127.5,-300,-146.25,-262.5,-176.66666666666666
1567,-528.75,-288.75,11.25,3.75,-116.25,-288.75,-135,-251.25,-177.08333333333334
1568,-543.75,-296.25,22.5,15,-108.75,-281.25,-127.5,-240,-173.33333333333334
1569,-487.5,-281.25,18.75,7.5,-116.25,-285,-131.25,-247.5,-169.16666666666666
1570,-465,-266.25,7.5,-7.5,-127.5,-296.25,-146.25,-266.25,-174.16666666666666
1571,-483.75,-251.25,18.75,3.75,-116.25,-285,-135,-255,-167.08333333333334
1572,-491.25,-243.75,22.5,3.75,-116.25,-285,-135,-251.25,-166.25
1573,-491.25,-243.75,22.5,11.25,-112.5,-285,-131.25,-247.5,-164.16666666666666
1574,-510,-251.25,26.25,18.75,-105,-277.5,-123.75,-240,-162.5
1575,-521.25,-258.75,18.75,15,-108.75,-285,-127.5,-243.75,-167.91666666666666
1576,-502.5,-255,15,11.25,-112.5,-285,-127.5,-243.75,-166.66666666666666
1577,-487.5,-262.5,15,3.75,-120,-288.75,-131.25,-247.5,-168.75
1578,-491.25,-247.5,15,3.75,-120,-288.75,-135,-247.5,-167.91666666666666
1579,-491.25,-217.5,7.5,-7.5,-131.25,-303.75,-146.25,-262.5,-172.5
1580,-506.25,-228.75,0,-15,-138.75,-311.25,-153.75,-270,-180.41666666666666
1581,-521.25,-258.75,15,-3.75,-127.5,-296.25,-138.75,-255,-176.25
1582,-517.5,-277.5,33.75,15,-112.5,-281.25,-123.75,-243.75,-167.5
1583,-491.25,-270,37.5,18.75,-108.75,-281.25,-127.5,-243.75,-162.91666666666666
1584,-468.75,-262.5,30,11.25,-116.25,-288.75,-131.25,-251.25,-164.16666666666666
1585,-461.25,-243.75,45,26.25,-101.25,-273.75,-120,-236.25,-151.66666666666666
1586,-453.75,-210,67.5,48.75,-82.5,-258.75,-105,-225,-135.41666666666666
1587,-483.75,-206.25,71.25,56.25,-82.5,-258.75,-105,-225,-137.08333333333334
1588,-506.25,-225,75,52.5,-82.5,-258.75,-105,-221.25,-141.25
1589,-472.5,-232.5,63.75,41.25,-93.75,-266.25,-116.25,-232.5,-145.41666666666666
1590,-453.75,-225,60,37.5,-97.5,-270,-120,-240,-145.41666666666666
1591,-450,-213.75,67.5,48.75,-86.25,-258.75,-108.75,-228.75,-136.66666666666666
1592,-435,-206.25,67.5,48.75,-86.25,-258.75,-108.75,-228.75,-134.16666666666666
1593,-431.25,-198.75,60,37.5,-97.5,-270,-120,-240,-140.0
1594,-461.25,-202.5,60,33.75,-97.5,-273.75,-123.75,-243.75,-145.41666666666666
1595,-480,-198.75,67.5,45,-90,-266.25,-112.5,-236.25,-141.25
1596,-487.5,-198.75,78.75,56.25,-78.75,-255,-101.25,-225,-134.58333333333334
1597,-495,-206.25,86.25,63.75,-71.25,-243.75,-90,-213.75,-130.0
1598,-476.25,-191.25,90,67.5,-63.75,-240,-82.5,-206.25,-122.5
1599,-461.25,-161.25,63.75,45,-82.5,-258.75,-97.5,-217.5,-130.0
1600,-468.75,-153.75,41.25,26.25,-97.5,-270,-108.75,-228.75,-140.0
1601,-450,-161.25,37.5,30,-90,-258.75,-97.5,-217.5,-134.16666666666666
1602,-378.75,-161.25,33.75,33.75,-86.25,-251.25,-90,-206.25,-122.91666666666667
1603,-382.5,-191.25,22.5,30,-86.25,-247.5,-86.25,-202.5,-127.08333333333333
1604,-427.5,-210,11.25,18.75,-93.75,-251.25,-90,-210,-139.16666666666666
1605,-431.25,-183.75,0,7.5,-101.25,-258.75,-97.5,-213.75,-142.08333333333334
1606,-431.25,-168.75,-3.75,7.5,-97.5,-255,-93.75,-213.75,-139.58333333333334
1607,-416.25,-176.25,-15,3.75,-101.25,-262.5,-101.25,-217.5,-142.91666666666666
1608,-416.25,-176.25,-15,3.75,-105,-262.5,-101.25,-217.5,-143.33333333333334
1609,-427.5,-153.75,-15,3.75,-101.25,-262.5,-101.25,-217.5,-141.66666666666666
1610,-416.25,-146.25,-22.5,-3.75,-112.5,-273.75,-108.75,-221.25,-145.0
1611,-420,-172.5,-30,-7.5,-120,-281.25,-112.5,-225,-152.08333333333334
1612,-442.5,-213.75,-30,-7.5,-116.25,-281.25,-112.5,-225,-158.75
1613,-442.5,-232.5,-33.75,-15,-123.75,-288.75,-120,-232.5,-165.41666666666666
1614,-431.25,-217.5,-33.75,-18.75,-127.5,-292.5,-127.5,-240,-165.41666666666666
1615,-431.25,-195,-33.75,-26.25,-138.75,-300,-135,-247.5,-167.5
1616,-427.5,-206.25,-37.5,-37.5,-150,-311.25,-146.25,-258.75,-175.0
1617,-412.5,-240,-26.25,-30,-142.5,-303.75,-138.75,-255,-172.08333333333334
1618,-423.75,-262.5,-15,-26.25,-138.75,-296.25,-135,-255,-172.5
1619,-457.5,-258.75,-7.5,-22.5,-138.75,-300,-135,-255,-175.0
1620,-472.5,-266.25,-7.5,-18.75,-138.75,-300,-138.75,-255,-177.5
1621,-468.75,-262.5,-11.25,-22.5,-138.75,-307.5,-142.5,-262.5,-179.58333333333334
1622,-450,-240,-15,-22.5,-142.5,-315,-150,-270,-178.33333333333334
1623,-446.25,-251.25,-26.25,-37.5,-161.25,-330,-165,-285,-189.16666666666666
1624,-465,-281.25,-26.25,-41.25,-165,-330,-165,-281.25,-195.0
1625,-468.75,-281.25,-30,-52.5,-172.5,-337.5,-168.75,-288.75,-200.0
1626,-468.75,-262.5,-37.5,-60,-180,-345,-180,-296.25,-203.33333333333334
1627,-495,-292.5,-30,-52.5,-168.75,-337.5,-168.75,-285,-203.33333333333334
1628,-502.5,-345,-18.75,-52.5,-168.75,-333.75,-165,-281.25,-207.5
1629,-510,-363.75,-22.5,-60,-180,-341.25,-172.5,-292.5,-215.83333333333334
1630,-510,-348.75,-30,-67.5,-187.5,-348.75,-180,-303.75,-219.58333333333334
1631,-487.5,-326.25,-41.25,-75,-195,-356.25,-187.5,-311.25,-220.0
1632,-502.5,-341.25,-41.25,-78.75,-198.75,-363.75,-195,-315,-226.25
1633,-510,-345,-33.75,-71.25,-191.25,-356.25,-187.5,-307.5,-222.5
1634,-495,-318.75,-22.5,-52.5,-176.25,-341.25,-172.5,-292.5,-207.91666666666666
1635,-525,-322.5,-26.25,-56.25,-176.25,-345,-172.5,-292.5,-212.91666666666666
1636,-521.25,-315,-33.75,-63.75,-191.25,-356.25,-183.75,-303.75,-218.75
1637,-476.25,-300,-33.75,-71.25,-195,-360,-187.5,-303.75,-214.16666666666666
1638,-453.75,-311.25,-37.5,-67.5,-191.25,-356.25,-183.75,-300,-211.25
1639,-472.5,-315,-30,-63.75,-183.75,-345,-176.25,-292.5,-208.75
1640,-532.5,-330,-26.25,-60,-176.25,-337.5,-165,-285,-212.5
1641,-543.75,-352.5,-37.5,-71.25,-191.25,-348.75,-180,-300,-225.0
1642,-495,-356.25,-52.5,-90,-210,-367.5,-198.75,-318.75,-232.08333333333334
1643,-461.25,-326.25,-52.5,-90,-210,-371.25,-198.75,-318.75,-225.41666666666666
1644,-461.25,-285,-52.5,-90,-206.25,-371.25,-198.75,-318.75,-220.41666666666666
1645,-495,-270,-63.75,-97.5,-217.5,-382.5,-210,-330,-229.58333333333334
1646,-513.75,-288.75,-52.5,-82.5,-206.25,-367.5,-198.75,-315,-225.0
1647,-491.25,-326.25,-52.5,-78.75,-202.5,-367.5,-195,-311.25,-225.0
1648,-457.5,-311.25,-60,-86.25,-210,-375,-202.5,-318.75,-224.58333333333334
1649,-442.5,-285,-60,-90,-213.75,-378.75,-206.25,-322.5,-222.08333333333334
1650,-446.25,-303.75,-48.75,-78.75,-206.25,-375,-206.25,-322.5,-220.83333333333334
1651,-468.75,-348.75,-26.25,-67.5,-206.25,-382.5,-213.75,-333.75,-227.5
1652,-476.25,-397.5,0,-52.5,-213.75,-405,-243.75,-363.75,-239.16666666666666
1653,-495,-435,33.75,-26.25,-225,-431.25,-277.5,-401.25,-250.83333333333334
1654,-510,-457.5,86.25,7.5,-228.75,-457.5,-311.25,-435,-256.25
1655,-491.25,-465,135,45,-232.5,-480,-341.25,-465,-255.0
1656,-472.5,-457.5,168.75,78.75,-228.75,-495,-360,-483.75,-250.0
1657,-461.25,-420,206.25,135,-195,-472.5,-345,-468.75,-224.58333333333334
1658,-416.25,-348.75,251.25,213.75,-131.25,-423.75,-303.75,-427.5,-176.25
1659,-386.25,-300,285,292.5,-63.75,-367.5,-251.25,-378.75,-130.0
1660,-371.25,-266.25,307.5,363.75,11.25,-300,-191.25,-326.25,-85.83333333333333
1661,-318.75,-210,315,408.75,67.5,-240,-127.5,-270,-41.666666666666664
1662,-258.75,-123.75,315,446.25,123.75,-172.5,-60,-202.5,7.5
1663,-195,-22.5,318.75,502.5,206.25,-71.25,45,-105,75.41666666666667
1664,-123.75,75,307.5,558.75,300,37.5,157.5,0,145.83333333333334
1665,-71.25,210,277.5,588.75,378.75,142.5,266.25,101.25,210.41666666666666
1666,-7.5,363.75,221.25,577.5,446.25,255,390,232.5,275.4166666666667
1667,52.5,513.75,176.25,588.75,551.25,401.25,551.25,390,358.3333333333333
1668,93.75,667.5,176.25,660,693.75,581.25,738.75,566.25,464.1666666666667
1669,120,870,168.75,716.25,840,776.25,952.5,780,580.4166666666666
1670,123.75,1095,71.25,686.25,937.5,956.25,1166.25,1008.75,671.6666666666666
1671,161.25,1226.25,-71.25,588.75,975,1080,1323.75,1166.25,716.6666666666666
1672,180,1286.25,-195,461.25,993.75,1173.75,1436.25,1275,734.5833333333334
1673,135,1327.5,-277.5,345,1027.5,1282.5,1552.5,1380,752.5
1674,71.25,1301.25,-296.25,311.25,1080,1365,1616.25,1410,762.0833333333334
1675,15,1256.25,-281.25,315,1132.5,1406.25,1620,1368.75,759.1666666666666
1676,-67.5,1230,-307.5,243.75,1132.5,1410,1605,1331.25,730.8333333333334
1677,-180,1136.25,-341.25,123.75,1072.5,1361.25,1548.75,1267.5,665.4166666666666
1678,-296.25,926.25,-360,0,937.5,1196.25,1368.75,1095,540.8333333333334
1679,-382.5,705,-352.5,-108.75,742.5,937.5,1106.25,855,389.1666666666667
1680,-453.75,525,-352.5,-225,510,645,836.25,626.25,234.58333333333334
1681,-536.25,382.5,-352.5,-356.25,247.5,345,566.25,416.25,79.16666666666667
1682,-603.75,251.25,-363.75,-495,-7.5,63.75,315,217.5,-69.16666666666667
1683,-652.5,86.25,-375,-588.75,-183.75,-142.5,112.5,37.5,-189.58333333333334
1684,-675,-71.25,-360,-585,-247.5,-247.5,-18.75,-105,-256.6666666666667
1685,-660,-150,-352.5,-536.25,-247.5,-281.25,-86.25,-191.25,-278.3333333333333
1686,-637.5,-161.25,-352.5,-487.5,-221.25,-273.75,-93.75,-210,-270.8333333333333
1687,-607.5,-172.5,-345,-423.75,-187.5,-247.5,-71.25,-202.5,-250.83333333333334
1688,-592.5,-217.5,-322.5,-378.75,-183.75,-243.75,-67.5,-202.5,-245.41666666666666
1689,-603.75,-232.5,-300,-356.25,-206.25,-270,-86.25,-210,-251.66666666666666
1690,-585,-206.25,-281.25,-326.25,-225,-292.5,-101.25,-221.25,-248.75
1691,-532.5,-172.5,-255,-277.5,-210,-288.75,-97.5,-217.5,-227.91666666666666
1692,-491.25,-150,-217.5,-210,-168.75,-262.5,-75,-195,-196.66666666666666
1693,-453.75,-123.75,-180,-146.25,-127.5,-236.25,-56.25,-180,-167.08333333333334
1694,-431.25,-123.75,-142.5,-90,-90,-217.5,-45,-172.5,-145.83333333333334
1695,-423.75,-161.25,-108.75,-45,-60,-202.5,-41.25,-176.25,-135.41666666666666
1696,-435,-191.25,-86.25,-22.5,-56.25,-206.25,-48.75,-183.75,-136.66666666666666
1697,-420,-187.5,-60,-3.75,-48.75,-202.5,-48.75,-187.5,-128.75
1698,-393.75,-180,-56.25,-3.75,-56.25,-217.5,-63.75,-206.25,-130.83333333333334
1699,-386.25,-176.25,-56.25,-7.5,-71.25,-232.5,-78.75,-221.25,-136.66666666666666
1700,-386.25,-195,-48.75,-3.75,-75,-240,-86.25,-228.75,-140.41666666666666
1701,-390,-217.5,-48.75,-15,-86.25,-251.25,-97.5,-240,-149.58333333333334
1702,-416.25,-243.75,-41.25,-15,-93.75,-258.75,-101.25,-243.75,-157.08333333333334
1703,-435,-255,-26.25,0,-82.5,-251.25,-93.75,-236.25,-153.33333333333334
1704,-435,-228.75,-22.5,0,-86.25,-255,-97.5,-236.25,-151.25
1705,-420,-191.25,-30,-3.75,-93.75,-262.5,-108.75,-243.75,-150.41666666666666
1706,-390,-183.75,-41.25,-7.5,-108.75,-277.5,-120,-255,-153.75
1707,-386.25,-213.75,-52.5,-18.75,-120,-292.5,-135,-270,-165.41666666666666
1708,-405,-225,-52.5,-22.5,-123.75,-296.25,-138.75,-270,-170.41666666666666
1709,-390,-217.5,-41.25,-11.25,-116.25,-285,-127.5,-258.75,-160.83333333333334
1710,-382.5,-251.25,-37.5,-11.25,-116.25,-285,-127.5,-255,-162.91666666666666
1711,-397.5,-281.25,-37.5,-11.25,-116.25,-285,-127.5,-258.75,-168.33333333333334
1712,-393.75,-273.75,-41.25,-18.75,-123.75,-288.75,-135,-266.25,-171.25
1713,-393.75,-270,-48.75,-30,-142.5,-303.75,-146.25,-277.5,-179.16666666666666
1714,-390,-266.25,-48.75,-33.75,-142.5,-307.5,-150,-281.25,-180.0
1715,-416.25,-266.25,-33.75,-15,-120,-288.75,-131.25,-266.25,-170.83333333333334
1716,-453.75,-262.5,-18.75,3.75,-105,-270,-112.5,-251.25,-163.33333333333334
1717,-397.5,-240,-30,-3.75,-112.5,-285,-123.75,-262.5,-161.66666666666666
1718,-348.75,-217.5,-33.75,-7.5,-120,-292.5,-131.25,-266.25,-157.5
1719,-363.75,-195,-33.75,0,-116.25,-288.75,-131.25,-262.5,-154.58333333333334
1720,-360,-176.25,-52.5,-18.75,-135,-307.5,-146.25,-277.5,-163.75
1721,-337.5,-165,-56.25,-26.25,-142.5,-311.25,-146.25,-281.25,-162.91666666666666
1722,-348.75,-195,-37.5,-7.5,-123.75,-292.5,-127.5,-262.5,-155.0
1723,-363.75,-240,-26.25,3.75,-108.75,-281.25,-120,-255,-154.58333333333334
1724,-360,-266.25,-30,0,-112.5,-281.25,-120,-258.75,-158.75
1725,-360,-262.5,-26.25,0,-112.5,-281.25,-120,-255,-157.5
1726,-367.5,-240,-33.75,-7.5,-120,-285,-123.75,-258.75,-159.58333333333334
1727,-352.5,-210,-33.75,-3.75,-120,-285,-123.75,-258.75,-154.16666666666666
1728,-333.75,-195,-30,0,-116.25,-281.25,-123.75,-258.75,-148.75
1729,-341.25,-191.25,-22.5,11.25,-105,-273.75,-116.25,-251.25,-143.33333333333334
1730,-348.75,-198.75,-30,11.25,-105,-277.5,-116.25,-255,-146.66666666666666
1731,-330,-210,-45,0,-120,-292.5,-127.5,-266.25,-154.58333333333334
1732,-337.5,-228.75,-45,0,-116.25,-288.75,-127.5,-262.5,-156.25
1733,-363.75,-228.75,-33.75,7.5,-105,-277.5,-116.25,-251.25,-152.08333333333334
1734,-345,-213.75,-33.75,11.25,-101.25,-270,-108.75,-247.5,-145.41666666666666
1735,-315,-232.5,-37.5,7.5,-105,-273.75,-112.5,-251.25,-146.66666666666666
1736,-307.5,-236.25,-37.5,7.5,-105,-270,-112.5,-247.5,-145.41666666666666
1737,-315,-221.25,-37.5,7.5,-101.25,-266.25,-108.75,-243.75,-142.91666666666666
1738,-333.75,-225,-33.75,7.5,-97.5,-262.5,-101.25,-240,-142.91666666666666
1739,-345,-202.5,-41.25,7.5,-101.25,-266.25,-105,-247.5,-144.58333333333334
1740,-345,-180,-52.5,3.75,-108.75,-273.75,-112.5,-251.25,-146.66666666666666
1741,-337.5,-176.25,-45,11.25,-101.25,-266.25,-105,-243.75,-140.41666666666666
1742,-296.25,-172.5,-33.75,26.25,-86.25,-251.25,-93.75,-232.5,-126.66666666666667
1743,-277.5,-183.75,-26.25,41.25,-71.25,-243.75,-82.5,-221.25,-118.33333333333333
1744,-307.5,-183.75,-15,52.5,-60,-232.5,-71.25,-210,-114.16666666666667
1745,-292.5,-165,-26.25,41.25,-67.5,-240,-78.75,-213.75,-115.83333333333333
