samplenr	I	II	V1	V2	V3	V4	V5	V6	measurement
0	-26.25	-26.25	-3.75	-22.5	37.5	3.75	0	11.25
1	-33.75	-37.5	0	-18.75	33.75	0	-3.75	7.5
2	-41.25	-52.5	3.75	-15	30	-7.5	-7.5	3.75
3	-33.75	-56.25	0	-18.75	22.5	-15	-18.75	-3.75
4	-30	-56.25	3.75	-22.5	15	-22.5	-26.25	-11.25
5	-45	-60	3.75	-22.5	15	-22.5	-26.25	-11.25
6	-52.5	-71.25	3.75	-26.25	11.25	-30	-33.75	-15
7	-30	-75	0	-30	3.75	-37.5	-41.25	-22.5
8	-26.25	-67.5	0	-33.75	0	-41.25	-45	-26.25
9	-30	-60	7.5	-30	0	-41.25	-48.75	-26.25
10	-30	-60	7.5	-30	0	-41.25	-48.75	-26.25
11	-45	-67.5	3.75	-30	-7.5	-45	-52.5	-30
12	-41.25	-63.75	7.5	-26.25	-3.75	-45	-48.75	-26.25
13	-30	-56.25	15	-15	3.75	-37.5	-37.5	-15
14	-33.75	-71.25	15	-15	3.75	-37.5	-41.25	-18.75
15	-33.75	-82.5	3.75	-22.5	-3.75	-48.75	-52.5	-26.25
16	-18.75	-75	0	-30	-11.25	-52.5	-56.25	-30
17	7.5	-56.25	3.75	-26.25	-7.5	-45	-52.5	-26.25
18	11.25	-48.75	7.5	-18.75	0	-41.25	-45	-18.75
19	-3.75	-52.5	7.5	-22.5	-3.75	-45	-48.75	-22.5
20	-22.5	-60	7.5	-26.25	-7.5	-48.75	-52.5	-26.25
21	-22.5	-60	3.75	-30	-11.25	-48.75	-52.5	-26.25
22	-15	-52.5	11.25	-22.5	-3.75	-41.25	-45	-22.5
23	-11.25	-45	18.75	-11.25	3.75	-33.75	-37.5	-18.75
24	-3.75	-45	18.75	-7.5	11.25	-30	-37.5	-15
25	-7.5	-48.75	15	-7.5	7.5	-33.75	-41.25	-15
26	-26.25	-60	11.25	-3.75	11.25	-33.75	-37.5	-15
27	-22.5	-71.25	0	-11.25	3.75	-41.25	-41.25	-18.75
28	-15	-78.75	0	-15	0	-41.25	-48.75	-18.75
29	-26.25	-78.75	7.5	-7.5	7.5	-33.75	-41.25	-15
30	-15	-67.5	11.25	-7.5	11.25	-30	-41.25	-15
31	-3.75	-67.5	3.75	-15	0	-37.5	-45	-22.5
32	-18.75	-75	-3.75	-18.75	0	-37.5	-45	-22.5
33	-52.5	-93.75	-7.5	-22.5	-3.75	-41.25	-48.75	-30
34	-41.25	-82.5	-7.5	-22.5	0	-41.25	-48.75	-30
35	-7.5	-56.25	-3.75	-11.25	7.5	-30	-37.5	-18.75
36	11.25	-41.25	7.5	-3.75	18.75	-22.5	-26.25	-7.5
37	48.75	-3.75	22.5	18.75	37.5	-3.75	-7.5	15
38	75	15	26.25	30	45	3.75	0	22.5
39	56.25	-7.5	15	18.75	37.5	-3.75	-7.5	15
40	33.75	-30	3.75	11.25	30	-11.25	-15	7.5
41	60	-11.25	7.5	11.25	30	-11.25	-11.25	15
42	63.75	0	11.25	15	37.5	-7.5	-7.5	18.75
43	26.25	-22.5	7.5	15	37.5	-7.5	-7.5	15
44	18.75	-30	0	11.25	33.75	-11.25	-11.25	7.5
45	22.5	-26.25	3.75	11.25	33.75	-7.5	-11.25	7.5
46	15	-26.25	3.75	15	33.75	-3.75	-7.5	11.25
47	18.75	-30	3.75	18.75	37.5	-3.75	-7.5	15
48	30	-30	0	15	33.75	-3.75	-7.5	15
49	37.5	-15	3.75	26.25	45	3.75	0	26.25
50	45	-7.5	11.25	37.5	56.25	15	11.25	37.5
51	63.75	0	11.25	37.5	60	18.75	15	45
52	63.75	3.75	3.75	33.75	52.5	11.25	11.25	37.5
53	45	-18.75	-7.5	22.5	45	3.75	0	26.25
54	48.75	-26.25	-11.25	22.5	45	3.75	3.75	26.25
55	60	-18.75	3.75	33.75	60	18.75	18.75	41.25
56	52.5	-18.75	0	30	52.5	15	11.25	33.75
57	48.75	0	-7.5	22.5	48.75	7.5	7.5	26.25
58	67.5	18.75	-3.75	30	52.5	11.25	7.5	30
59	71.25	18.75	-11.25	26.25	48.75	7.5	3.75	22.5
60	56.25	3.75	-15	30	52.5	7.5	3.75	22.5
61	56.25	3.75	-7.5	45	63.75	18.75	15	37.5
62	71.25	11.25	-3.75	48.75	67.5	26.25	22.5	45
63	82.5	15	-7.5	45	67.5	22.5	22.5	48.75
64	82.5	18.75	-11.25	37.5	60	22.5	18.75	45
65	82.5	22.5	-15	41.25	63.75	22.5	22.5	48.75
66	75	22.5	-11.25	48.75	67.5	26.25	26.25	48.75
67	97.5	22.5	-18.75	41.25	67.5	26.25	26.25	48.75
68	105	15	-18.75	41.25	63.75	22.5	26.25	45
69	97.5	18.75	-15	45	63.75	26.25	30	48.75
70	97.5	22.5	-11.25	45	67.5	30	33.75	52.5
71	90	7.5	-22.5	37.5	60	22.5	26.25	48.75
72	101.25	26.25	-18.75	48.75	67.5	33.75	37.5	60
73	138.75	71.25	0	71.25	90	52.5	60	82.5
74	161.25	75	0	75	90	52.5	63.75	86.25
75	168.75	71.25	-11.25	67.5	82.5	48.75	60	86.25
76	161.25	67.5	-18.75	60	78.75	48.75	60	86.25
77	146.25	60	-22.5	56.25	78.75	48.75	60	86.25
78	150	56.25	-30	56.25	75	48.75	60	86.25
79	138.75	45	-37.5	45	67.5	37.5	48.75	75
80	112.5	26.25	-37.5	37.5	56.25	30	45	71.25
81	112.5	33.75	-37.5	37.5	60	33.75	48.75	75
82	135	60	-33.75	45	63.75	41.25	56.25	82.5
83	153.75	75	-30	48.75	67.5	41.25	56.25	86.25
84	153.75	78.75	-26.25	52.5	71.25	41.25	56.25	90
85	161.25	78.75	-18.75	63.75	78.75	48.75	63.75	101.25
86	180	78.75	-30	60	75	45	63.75	97.5
87	172.5	63.75	-41.25	48.75	60	33.75	52.5	86.25
88	157.5	56.25	-41.25	45	60	30	52.5	90
89	161.25	60	-33.75	48.75	63.75	37.5	60	97.5
90	172.5	75	-33.75	48.75	63.75	37.5	60	101.25
91	176.25	86.25	-41.25	45	56.25	33.75	56.25	97.5
92	165	82.5	-41.25	37.5	48.75	26.25	52.5	90
93	176.25	93.75	-26.25	48.75	56.25	37.5	60	97.5
94	187.5	105	-22.5	52.5	63.75	45	67.5	105
95	172.5	97.5	-26.25	48.75	56.25	37.5	63.75	101.25
96	176.25	105	-22.5	56.25	60	41.25	63.75	108.75
97	195	112.5	-26.25	60	63.75	37.5	63.75	108.75
98	202.5	105	-26.25	60	60	33.75	60	108.75
99	183.75	90	-22.5	56.25	56.25	30	56.25	108.75
100	183.75	90	-18.75	56.25	52.5	30	56.25	105
101	195	93.75	-15	56.25	52.5	30	60	108.75
102	191.25	90	-18.75	52.5	48.75	26.25	52.5	105
103	157.5	75	-15	52.5	48.75	22.5	52.5	101.25
104	127.5	45	-30	33.75	30	7.5	37.5	82.5
105	131.25	41.25	-30	26.25	18.75	0	26.25	71.25
106	135	63.75	-15	37.5	30	11.25	37.5	82.5
107	138.75	78.75	-15	41.25	30	7.5	37.5	86.25
108	176.25	105	-7.5	48.75	37.5	15	45	93.75
109	202.5	135	3.75	71.25	56.25	30	56.25	105
110	183.75	120	7.5	75	56.25	30	52.5	105
111	153.75	78.75	-3.75	56.25	37.5	7.5	33.75	82.5
112	150	71.25	3.75	56.25	33.75	3.75	30	78.75
113	142.5	75	3.75	56.25	30	-3.75	22.5	75
114	116.25	60	3.75	48.75	26.25	-7.5	18.75	67.5
115	120	60	3.75	45	18.75	-15	11.25	60
116	131.25	63.75	7.5	41.25	15	-18.75	3.75	48.75
117	123.75	63.75	15	41.25	15	-22.5	3.75	45
118	131.25	75	22.5	48.75	22.5	-15	7.5	52.5
119	120	56.25	26.25	48.75	22.5	-18.75	0	45
120	105	45	30	45	18.75	-26.25	-7.5	33.75
121	105	60	41.25	60	30	-18.75	3.75	45
122	82.5	45	33.75	56.25	22.5	-22.5	-3.75	37.5
123	60	22.5	30	45	15	-30	-15	22.5
124	41.25	11.25	33.75	41.25	15	-30	-18.75	18.75
125	22.5	-7.5	33.75	33.75	7.5	-37.5	-26.25	11.25
126	11.25	-26.25	26.25	26.25	0	-45	-33.75	3.75
127	7.5	-37.5	26.25	15	-11.25	-56.25	-41.25	0
128	0	-45	30	11.25	-11.25	-56.25	-45	-3.75
129	15	-33.75	37.5	18.75	-7.5	-52.5	-41.25	-3.75
130	41.25	-3.75	52.5	30	3.75	-45	-33.75	3.75
131	41.25	3.75	60	37.5	11.25	-37.5	-26.25	3.75
132	0	-18.75	60	30	7.5	-45	-33.75	-3.75
133	-37.5	-26.25	52.5	26.25	3.75	-52.5	-41.25	-7.5
134	-30	-30	48.75	22.5	0	-56.25	-48.75	-15
135	-18.75	-52.5	37.5	3.75	-15	-71.25	-60	-26.25
136	-26.25	-63.75	37.5	3.75	-15	-71.25	-63.75	-22.5
137	-26.25	-63.75	41.25	3.75	-15	-67.5	-60	-22.5
138	-37.5	-67.5	37.5	0	-18.75	-71.25	-63.75	-30
139	-45	-75	33.75	-11.25	-26.25	-78.75	-71.25	-37.5
140	-45	-78.75	37.5	-15	-30	-82.5	-75	-45
141	-41.25	-71.25	41.25	-15	-26.25	-78.75	-71.25	-45
142	-37.5	-60	48.75	-7.5	-22.5	-75	-67.5	-41.25
143	-52.5	-60	48.75	-11.25	-22.5	-78.75	-71.25	-41.25
144	-60	-63.75	45	-15	-26.25	-82.5	-75	-41.25
145	-52.5	-67.5	45	-11.25	-22.5	-78.75	-67.5	-37.5
146	-41.25	-67.5	48.75	-7.5	-18.75	-75	-67.5	-33.75
147	-48.75	-78.75	41.25	-18.75	-26.25	-82.5	-75	-41.25
148	-67.5	-97.5	26.25	-33.75	-41.25	-93.75	-86.25	-48.75
149	-78.75	-105	22.5	-37.5	-45	-97.5	-86.25	-52.5
150	-71.25	-90	33.75	-30	-37.5	-90	-82.5	-45
151	-63.75	-78.75	41.25	-30	-37.5	-90	-82.5	-48.75
152	-63.75	-82.5	37.5	-41.25	-45	-97.5	-90	-60
153	-67.5	-82.5	33.75	-48.75	-52.5	-101.25	-90	-60
154	-78.75	-78.75	33.75	-45	-52.5	-101.25	-90	-60
155	-97.5	-90	37.5	-45	-48.75	-101.25	-90	-60
156	-78.75	-86.25	37.5	-45	-52.5	-101.25	-90	-60
157	-56.25	-63.75	45	-33.75	-45	-93.75	-86.25	-52.5
158	-71.25	-67.5	48.75	-26.25	-37.5	-90	-82.5	-45
159	-86.25	-93.75	30	-41.25	-48.75	-101.25	-93.75	-60
160	-63.75	-101.25	22.5	-52.5	-63.75	-112.5	-105	-67.5
161	-52.5	-105	15	-60	-67.5	-120	-108.75	-75
162	-63.75	-105	18.75	-56.25	-60	-116.25	-105	-67.5
163	-90	-116.25	18.75	-56.25	-63.75	-112.5	-105	-67.5
164	-93.75	-120	18.75	-63.75	-71.25	-120	-112.5	-75
165	-78.75	-101.25	30	-52.5	-52.5	-105	-101.25	-67.5
166	-78.75	-82.5	45	-33.75	-37.5	-90	-82.5	-52.5
167	-86.25	-82.5	45	-37.5	-41.25	-93.75	-86.25	-56.25
168	-108.75	-108.75	37.5	-45	-48.75	-97.5	-93.75	-60
169	-120	-127.5	30	-41.25	-48.75	-101.25	-93.75	-60
170	-97.5	-112.5	45	-26.25	-33.75	-86.25	-82.5	-45
171	-63.75	-82.5	48.75	-22.5	-33.75	-82.5	-75	-41.25
172	-52.5	-78.75	41.25	-30	-37.5	-86.25	-78.75	-48.75
173	-63.75	-86.25	41.25	-30	-37.5	-90	-82.5	-48.75
174	-78.75	-90	41.25	-33.75	-41.25	-93.75	-86.25	-52.5
175	-97.5	-101.25	33.75	-41.25	-48.75	-97.5	-93.75	-60
176	-105	-105	26.25	-45	-48.75	-97.5	-97.5	-63.75
177	-101.25	-108.75	30	-45	-48.75	-93.75	-90	-63.75
178	-82.5	-93.75	33.75	-41.25	-41.25	-90	-86.25	-56.25
179	-67.5	-71.25	45	-30	-33.75	-78.75	-75	-45
180	-86.25	-82.5	45	-26.25	-30	-78.75	-75	-41.25
181	-82.5	-86.25	41.25	-22.5	-30	-78.75	-75	-41.25
182	-56.25	-67.5	45	-18.75	-22.5	-75	-67.5	-37.5
183	-52.5	-63.75	48.75	-15	-18.75	-67.5	-63.75	-33.75
184	-56.25	-67.5	45	-15	-18.75	-67.5	-67.5	-33.75
185	-63.75	-78.75	41.25	-18.75	-22.5	-71.25	-71.25	-41.25
186	-71.25	-93.75	30	-33.75	-33.75	-86.25	-82.5	-52.5
187	-63.75	-90	33.75	-33.75	-33.75	-82.5	-78.75	-45
188	-67.5	-90	33.75	-33.75	-37.5	-82.5	-78.75	-45
189	-97.5	-97.5	37.5	-33.75	-33.75	-82.5	-78.75	-48.75
190	-120	-101.25	45	-30	-30	-78.75	-75	-48.75
191	-112.5	-97.5	48.75	-22.5	-26.25	-75	-71.25	-45
192	-67.5	-75	52.5	-18.75	-18.75	-67.5	-67.5	-37.5
193	-45	-52.5	60	-3.75	-11.25	-60	-60	-30
194	-41.25	-52.5	56.25	-3.75	-7.5	-63.75	-60	-33.75
195	-45	-67.5	37.5	-18.75	-22.5	-71.25	-71.25	-41.25
196	-48.75	-71.25	37.5	-18.75	-22.5	-71.25	-67.5	-37.5
197	-48.75	-63.75	37.5	-15	-18.75	-67.5	-63.75	-33.75
198	-56.25	-67.5	33.75	-22.5	-22.5	-71.25	-67.5	-37.5
199	-63.75	-82.5	26.25	-33.75	-30	-78.75	-78.75	-48.75
200	-60	-90	18.75	-41.25	-37.5	-82.5	-82.5	-52.5
201	-63.75	-90	15	-45	-41.25	-86.25	-82.5	-56.25
202	-75	-86.25	22.5	-33.75	-33.75	-78.75	-75	-45
203	-75	-82.5	30	-26.25	-26.25	-71.25	-71.25	-41.25
204	-67.5	-75	37.5	-18.75	-18.75	-63.75	-60	-30
205	-75	-67.5	48.75	-3.75	-3.75	-52.5	-48.75	-18.75
206	-60	-52.5	37.5	-11.25	-11.25	-60	-56.25	-22.5
207	-26.25	-45	30	-22.5	-18.75	-63.75	-60	-26.25
208	-18.75	-48.75	33.75	-18.75	-18.75	-56.25	-52.5	-18.75
209	-30	-52.5	48.75	-3.75	-3.75	-41.25	-33.75	-3.75
210	-41.25	-63.75	45	-7.5	-7.5	-48.75	-45	-11.25
211	-52.5	-82.5	30	-26.25	-26.25	-67.5	-63.75	-30
212	-71.25	-105	18.75	-41.25	-41.25	-78.75	-75	-45
213	-82.5	-108.75	11.25	-48.75	-45	-86.25	-82.5	-48.75
214	-71.25	-86.25	22.5	-37.5	-33.75	-75	-71.25	-37.5
215	-60	-63.75	30	-30	-26.25	-67.5	-63.75	-33.75
216	-52.5	-60	26.25	-26.25	-26.25	-67.5	-67.5	-33.75
217	-45	-56.25	33.75	-18.75	-18.75	-60	-60	-26.25
218	-63.75	-71.25	30	-18.75	-18.75	-67.5	-67.5	-33.75
219	-71.25	-90	18.75	-30	-33.75	-78.75	-78.75	-41.25
220	-52.5	-75	18.75	-26.25	-30	-71.25	-71.25	-33.75
221	-52.5	-67.5	18.75	-30	-30	-71.25	-71.25	-33.75
222	-60	-75	11.25	-37.5	-37.5	-78.75	-75	-37.5
223	-52.5	-67.5	15	-37.5	-33.75	-75	-71.25	-37.5
224	-63.75	-82.5	11.25	-45	-41.25	-78.75	-78.75	-41.25
225	-101.25	-120	7.5	-56.25	-52.5	-90	-90	-56.25
226	-97.5	-112.5	15	-52.5	-48.75	-86.25	-90	-52.5
227	-60	-78.75	18.75	-45	-37.5	-71.25	-75	-37.5
228	-45	-60	22.5	-37.5	-30	-63.75	-67.5	-30
229	-48.75	-52.5	26.25	-26.25	-22.5	-56.25	-56.25	-22.5
230	-60	-56.25	33.75	-18.75	-15	-48.75	-48.75	-11.25
231	-71.25	-75	22.5	-33.75	-26.25	-60	-60	-22.5
232	-60	-86.25	11.25	-45	-37.5	-71.25	-67.5	-33.75
233	-41.25	-71.25	15	-45	-37.5	-67.5	-67.5	-30
234	-22.5	-48.75	26.25	-33.75	-30	-60	-63.75	-22.5
235	-41.25	-67.5	18.75	-45	-41.25	-71.25	-75	-37.5
236	-45	-67.5	15	-52.5	-48.75	-78.75	-78.75	-41.25
237	-56.25	-63.75	18.75	-48.75	-45	-75	-75	-37.5
238	-71.25	-67.5	22.5	-45	-37.5	-67.5	-67.5	-30
239	-60	-56.25	33.75	-37.5	-30	-63.75	-60	-22.5
240	-52.5	-67.5	22.5	-45	-41.25	-75	-71.25	-33.75
241	-56.25	-86.25	11.25	-52.5	-52.5	-90	-90	-45
242	-60	-82.5	11.25	-48.75	-48.75	-86.25	-86.25	-45
243	-71.25	-75	18.75	-45	-41.25	-82.5	-78.75	-37.5
244	-67.5	-71.25	22.5	-45	-41.25	-78.75	-75	-33.75
245	-63.75	-86.25	15	-52.5	-48.75	-86.25	-86.25	-41.25
246	-63.75	-97.5	7.5	-60	-56.25	-93.75	-93.75	-48.75
247	-52.5	-97.5	0	-67.5	-63.75	-97.5	-97.5	-56.25
248	-56.25	-101.25	-3.75	-75	-63.75	-97.5	-97.5	-60
249	-67.5	-90	3.75	-67.5	-60	-93.75	-93.75	-56.25
250	-71.25	-71.25	11.25	-60	-52.5	-86.25	-86.25	-48.75
251	-48.75	-52.5	18.75	-52.5	-45	-78.75	-82.5	-45
252	-22.5	-33.75	22.5	-45	-41.25	-75	-75	-37.5
253	-48.75	-48.75	22.5	-45	-41.25	-75	-75	-33.75
254	-78.75	-82.5	7.5	-52.5	-48.75	-82.5	-82.5	-41.25
255	-82.5	-101.25	0	-60	-56.25	-93.75	-90	-48.75
256	-75	-101.25	0	-63.75	-60	-97.5	-93.75	-52.5
257	-71.25	-93.75	3.75	-63.75	-56.25	-93.75	-90	-48.75
258	-82.5	-97.5	0	-63.75	-60	-93.75	-93.75	-52.5
259	-82.5	-108.75	-3.75	-71.25	-67.5	-101.25	-101.25	-60
260	-97.5	-120	0	-75	-67.5	-101.25	-97.5	-60
261	-101.25	-116.25	3.75	-75	-63.75	-97.5	-90	-56.25
262	-93.75	-112.5	0	-78.75	-67.5	-97.5	-93.75	-60
263	-90	-108.75	0	-78.75	-67.5	-105	-101.25	-67.5
264	-101.25	-108.75	3.75	-75	-67.5	-105	-105	-67.5
265	-86.25	-90	7.5	-67.5	-60	-97.5	-97.5	-56.25
266	-52.5	-75	7.5	-60	-56.25	-93.75	-90	-52.5
267	-60	-90	0	-63.75	-60	-101.25	-93.75	-56.25
268	-67.5	-90	3.75	-67.5	-60	-101.25	-93.75	-56.25
269	-71.25	-90	15	-60	-52.5	-93.75	-86.25	-45
270	-78.75	-108.75	3.75	-67.5	-60	-101.25	-93.75	-52.5
271	-78.75	-105	3.75	-71.25	-63.75	-97.5	-90	-52.5
272	-71.25	-93.75	7.5	-71.25	-60	-97.5	-90	-52.5
273	-86.25	-105	0	-78.75	-67.5	-105	-97.5	-60
274	-90	-90	7.5	-71.25	-60	-97.5	-90	-52.5
275	-67.5	-67.5	18.75	-60	-52.5	-90	-78.75	-45
276	-67.5	-78.75	18.75	-63.75	-56.25	-97.5	-86.25	-48.75
277	-67.5	-82.5	18.75	-60	-56.25	-101.25	-90	-48.75
278	-78.75	-86.25	15	-60	-52.5	-101.25	-90	-48.75
279	-112.5	-116.25	3.75	-67.5	-63.75	-108.75	-101.25	-56.25
280	-105	-127.5	0	-78.75	-71.25	-116.25	-108.75	-67.5
281	-78.75	-116.25	11.25	-71.25	-63.75	-108.75	-101.25	-60
282	-82.5	-108.75	7.5	-71.25	-67.5	-108.75	-101.25	-60
283	-90	-97.5	0	-78.75	-71.25	-116.25	-108.75	-63.75
284	-71.25	-86.25	-3.75	-82.5	-67.5	-112.5	-108.75	-63.75
285	-52.5	-78.75	3.75	-78.75	-67.5	-108.75	-101.25	-60
286	-56.25	-82.5	3.75	-75	-67.5	-108.75	-97.5	-56.25
287	-75	-97.5	7.5	-71.25	-63.75	-101.25	-93.75	-56.25
288	-82.5	-101.25	7.5	-67.5	-63.75	-101.25	-93.75	-56.25
289	-86.25	-90	11.25	-63.75	-60	-101.25	-93.75	-52.5
290	-86.25	-75	18.75	-52.5	-48.75	-93.75	-78.75	-37.5
291	-75	-71.25	15	-56.25	-52.5	-97.5	-86.25	-45
292	-45	-63.75	11.25	-63.75	-56.25	-101.25	-93.75	-48.75
293	-52.5	-78.75	11.25	-63.75	-60	-105	-97.5	-52.5
294	-71.25	-101.25	11.25	-67.5	-63.75	-105	-97.5	-52.5
295	-86.25	-127.5	-7.5	-86.25	-78.75	-123.75	-112.5	-67.5
296	-116.25	-142.5	-15	-97.5	-86.25	-127.5	-120	-71.25
297	-108.75	-120	0	-86.25	-78.75	-116.25	-112.5	-63.75
298	-86.25	-101.25	3.75	-82.5	-75	-116.25	-108.75	-60
299	-93.75	-108.75	3.75	-82.5	-78.75	-120	-108.75	-63.75
300	-108.75	-116.25	0	-82.5	-78.75	-120	-112.5	-67.5
301	-108.75	-108.75	7.5	-67.5	-67.5	-112.5	-105	-60
302	-86.25	-90	7.5	-63.75	-63.75	-112.5	-105	-60
303	-63.75	-75	11.25	-63.75	-63.75	-112.5	-105	-60
304	-75	-78.75	7.5	-71.25	-71.25	-116.25	-108.75	-63.75
305	-67.5	-78.75	3.75	-75	-71.25	-116.25	-112.5	-63.75
306	-71.25	-90	3.75	-71.25	-67.5	-112.5	-108.75	-60
307	-90	-105	0	-78.75	-75	-116.25	-108.75	-63.75
308	-93.75	-105	3.75	-82.5	-78.75	-116.25	-108.75	-63.75
309	-86.25	-93.75	7.5	-82.5	-75	-112.5	-105	-60
310	-78.75	-78.75	11.25	-78.75	-67.5	-108.75	-97.5	-56.25
311	-67.5	-75	15	-71.25	-63.75	-108.75	-101.25	-56.25
312	-82.5	-101.25	11.25	-71.25	-67.5	-116.25	-108.75	-63.75
313	-90	-108.75	7.5	-71.25	-67.5	-120	-112.5	-67.5
314	-56.25	-78.75	15	-60	-56.25	-112.5	-105	-56.25
315	-45	-60	26.25	-48.75	-48.75	-105	-93.75	-48.75
316	-67.5	-75	18.75	-60	-52.5	-105	-101.25	-52.5
317	-82.5	-93.75	11.25	-60	-52.5	-105	-97.5	-52.5
318	-67.5	-78.75	22.5	-48.75	-45	-93.75	-86.25	-41.25
319	-67.5	-71.25	22.5	-45	-45	-93.75	-86.25	-41.25
320	-82.5	-78.75	26.25	-52.5	-52.5	-97.5	-90	-48.75
321	-78.75	-63.75	37.5	-48.75	-45	-93.75	-86.25	-41.25
322	-78.75	-41.25	52.5	-37.5	-37.5	-82.5	-75	-33.75
323	-82.5	-45	52.5	-37.5	-37.5	-86.25	-78.75	-41.25
324	-67.5	-45	48.75	-37.5	-41.25	-93.75	-90	-48.75
325	-71.25	-41.25	60	-26.25	-33.75	-86.25	-82.5	-45
326	-71.25	-41.25	67.5	-18.75	-26.25	-86.25	-82.5	-45
327	-41.25	-30	67.5	-11.25	-18.75	-78.75	-82.5	-41.25
328	-22.5	-33.75	60	-15	-22.5	-78.75	-82.5	-41.25
329	-33.75	-52.5	52.5	-18.75	-26.25	-78.75	-82.5	-41.25
330	-52.5	-60	56.25	-22.5	-30	-82.5	-82.5	-41.25
331	-52.5	-60	63.75	-18.75	-26.25	-78.75	-82.5	-45
332	-60	-60	71.25	-11.25	-22.5	-75	-78.75	-41.25
333	-90	-56.25	75	-11.25	-18.75	-71.25	-75	-33.75
334	-105	-45	78.75	-3.75	-15	-63.75	-63.75	-26.25
335	-75	-22.5	86.25	0	-7.5	-60	-60	-22.5
336	-41.25	7.5	93.75	7.5	3.75	-52.5	-52.5	-11.25
337	-37.5	18.75	86.25	11.25	3.75	-52.5	-48.75	-3.75
338	-37.5	15	75	7.5	0	-52.5	-48.75	0
339	-45	-3.75	48.75	-11.25	-15	-63.75	-60	-11.25
340	-45	-18.75	33.75	-26.25	-22.5	-71.25	-63.75	-15
341	-37.5	-18.75	22.5	-26.25	-18.75	-63.75	-56.25	-7.5
342	-45	-37.5	3.75	-37.5	-26.25	-71.25	-60	-11.25
343	-48.75	-56.25	-11.25	-48.75	-41.25	-82.5	-75	-26.25
344	-18.75	-30	0	-45	-33.75	-71.25	-67.5	-22.5
345	-7.5	-15	-3.75	-48.75	-33.75	-71.25	-63.75	-18.75
346	-18.75	-22.5	-11.25	-56.25	-45	-75	-71.25	-22.5
347	-26.25	-33.75	-11.25	-63.75	-48.75	-78.75	-71.25	-22.5
348	-33.75	-52.5	-15	-67.5	-52.5	-82.5	-78.75	-26.25
349	-15	-26.25	-11.25	-56.25	-45	-78.75	-75	-22.5
350	-18.75	-7.5	-7.5	-56.25	-45	-82.5	-75	-26.25
351	-41.25	-37.5	-11.25	-71.25	-60	-93.75	-90	-37.5
352	-33.75	-41.25	-11.25	-75	-63.75	-97.5	-93.75	-45
353	-26.25	-30	0	-63.75	-56.25	-93.75	-90	-41.25
354	-45	-48.75	3.75	-63.75	-56.25	-93.75	-86.25	-41.25
355	-56.25	-78.75	-3.75	-75	-67.5	-101.25	-97.5	-52.5
356	-52.5	-86.25	-3.75	-82.5	-71.25	-105	-97.5	-52.5
357	-60	-75	-15	-86.25	-71.25	-108.75	-105	-60
358	-63.75	-60	-7.5	-82.5	-71.25	-108.75	-101.25	-56.25
359	-63.75	-48.75	7.5	-71.25	-63.75	-101.25	-97.5	-48.75
360	-56.25	-45	11.25	-67.5	-60	-101.25	-97.5	-45
361	-45	-48.75	11.25	-63.75	-60	-101.25	-97.5	-48.75
362	-45	-56.25	7.5	-67.5	-63.75	-105	-101.25	-52.5
363	-52.5	-60	11.25	-63.75	-63.75	-101.25	-97.5	-52.5
364	-97.5	-97.5	3.75	-78.75	-75	-116.25	-108.75	-63.75
365	-127.5	-138.75	-22.5	-105	-101.25	-138.75	-131.25	-82.5
366	-105	-131.25	-22.5	-105	-105	-142.5	-131.25	-82.5
367	-93.75	-127.5	-11.25	-97.5	-97.5	-131.25	-127.5	-78.75
368	-93.75	-131.25	-11.25	-105	-97.5	-135	-131.25	-78.75
369	-93.75	-131.25	-15	-108.75	-105	-142.5	-142.5	-86.25
370	-97.5	-116.25	-7.5	-101.25	-101.25	-138.75	-138.75	-86.25
371	-90	-97.5	0	-90	-90	-131.25	-131.25	-78.75
372	-86.25	-97.5	0	-90	-86.25	-127.5	-131.25	-78.75
373	-101.25	-105	0	-86.25	-86.25	-131.25	-131.25	-78.75
374	-97.5	-101.25	-3.75	-82.5	-86.25	-131.25	-131.25	-78.75
375	-101.25	-123.75	-15	-93.75	-97.5	-138.75	-138.75	-86.25
376	-105	-142.5	-18.75	-101.25	-101.25	-138.75	-138.75	-86.25
377	-75	-112.5	-3.75	-90	-86.25	-123.75	-123.75	-71.25
378	-60	-82.5	7.5	-78.75	-75	-112.5	-108.75	-60
379	-90	-108.75	-3.75	-90	-90	-123.75	-120	-71.25
380	-101.25	-131.25	-18.75	-108.75	-108.75	-142.5	-131.25	-82.5
381	-108.75	-127.5	-18.75	-112.5	-108.75	-142.5	-135	-86.25
382	-123.75	-123.75	-11.25	-105	-105	-138.75	-131.25	-82.5
383	-127.5	-127.5	-15	-101.25	-101.25	-135	-127.5	-78.75
384	-131.25	-135	-15	-101.25	-101.25	-138.75	-135	-86.25
385	-127.5	-135	-11.25	-93.75	-93.75	-138.75	-138.75	-90
386	-120	-135	-11.25	-90	-93.75	-138.75	-135	-90
387	-123.75	-142.5	-15	-93.75	-101.25	-142.5	-138.75	-90
388	-120	-138.75	-18.75	-93.75	-101.25	-142.5	-138.75	-93.75
389	-101.25	-127.5	-18.75	-90	-93.75	-135	-135	-86.25
390	-90	-127.5	-15	-93.75	-97.5	-138.75	-135	-90
391	-82.5	-131.25	-7.5	-86.25	-93.75	-142.5	-142.5	-97.5
392	-75	-142.5	15	-67.5	-93.75	-150	-153.75	-112.5
393	-71.25	-150	48.75	-33.75	-86.25	-157.5	-168.75	-135
394	-67.5	-165	101.25	18.75	-67.5	-165	-187.5	-157.5
395	-56.25	-191.25	153.75	71.25	-52.5	-180	-213.75	-183.75
396	-41.25	-195	198.75	116.25	-41.25	-187.5	-232.5	-206.25
397	-37.5	-168.75	240	180	-3.75	-168.75	-221.25	-195
398	-18.75	-131.25	270	247.5	48.75	-131.25	-191.25	-172.5
399	22.5	-78.75	296.25	318.75	112.5	-82.5	-150	-135
400	71.25	-22.5	333.75	397.5	187.5	-11.25	-86.25	-82.5
401	97.5	7.5	345	457.5	255	48.75	-30	-33.75
402	112.5	33.75	333.75	487.5	300	97.5	15	7.5
403	150	105	333.75	525	352.5	161.25	82.5	75
404	221.25	213.75	337.5	577.5	431.25	262.5	191.25	176.25
405	337.5	356.25	326.25	641.25	532.5	382.5	315	292.5
406	427.5	495	315	686.25	626.25	506.25	442.5	416.25
407	457.5	592.5	262.5	667.5	686.25	607.5	558.75	536.25
408	495	720	221.25	675	776.25	742.5	708.75	686.25
409	547.5	907.5	228.75	750	918.75	918.75	892.5	862.5
410	566.25	1102.5	198.75	780	1031.25	1087.5	1083.75	1053.75
411	600	1293.75	78.75	708.75	1083.75	1233.75	1271.25	1252.5
412	652.5	1413.75	-37.5	622.5	1125	1365	1436.25	1417.5
413	656.25	1447.5	-142.5	510	1143.75	1462.5	1556.25	1533.75
414	615	1466.25	-228.75	360	1125	1537.5	1657.5	1627.5
415	547.5	1413.75	-251.25	307.5	1151.25	1601.25	1710	1650
416	457.5	1293.75	-221.25	337.5	1218.75	1653.75	1728.75	1616.25
417	393.75	1233.75	-210	311.25	1248.75	1687.5	1732.5	1586.25
418	345	1188.75	-228.75	198.75	1185	1627.5	1665	1518.75
419	243.75	1027.5	-240	60	1038.75	1455	1485	1350
420	112.5	843.75	-198.75	-37.5	870	1215	1230	1121.25
421	3.75	697.5	-157.5	-131.25	656.25	926.25	941.25	881.25
422	-93.75	551.25	-150	-255	401.25	618.75	652.5	648.75
423	-180	401.25	-176.25	-397.5	153.75	333.75	393.75	438.75
424	-228.75	266.25	-198.75	-498.75	-22.5	138.75	202.5	270
425	-266.25	142.5	-187.5	-510	-82.5	41.25	82.5	146.25
426	-292.5	56.25	-172.5	-491.25	-105	-11.25	11.25	60
427	-292.5	3.75	-187.5	-487.5	-127.5	-37.5	-22.5	18.75
428	-277.5	-18.75	-210	-468.75	-120	-33.75	-18.75	15
429	-270	-33.75	-213.75	-431.25	-108.75	-26.25	-11.25	22.5
430	-243.75	-41.25	-210	-397.5	-123.75	-48.75	-22.5	18.75
431	-213.75	-45	-210	-371.25	-142.5	-75	-45	7.5
432	-202.5	-60	-202.5	-341.25	-142.5	-90	-60	-7.5
433	-176.25	-63.75	-180	-292.5	-127.5	-86.25	-63.75	-11.25
434	-142.5	-45	-157.5	-243.75	-93.75	-71.25	-56.25	0
435	-97.5	0	-123.75	-180	-45	-37.5	-26.25	26.25
436	-67.5	18.75	-93.75	-120	0	-3.75	-3.75	37.5
437	-67.5	7.5	-71.25	-75	26.25	11.25	3.75	37.5
438	-71.25	7.5	-41.25	-45	45	18.75	7.5	37.5
439	-48.75	18.75	-18.75	-26.25	52.5	22.5	7.5	37.5
440	-30	15	-7.5	-22.5	45	15	0	26.25
441	-37.5	-3.75	-11.25	-30	30	-3.75	-22.5	7.5
442	-52.5	-15	-7.5	-26.25	26.25	-15	-30	0
443	-75	-41.25	-3.75	-22.5	26.25	-18.75	-30	-3.75
444	-71.25	-48.75	3.75	-18.75	22.5	-26.25	-37.5	-7.5
445	-48.75	-18.75	11.25	-7.5	26.25	-26.25	-37.5	-3.75
446	-18.75	0	11.25	-3.75	22.5	-33.75	-45	-11.25
447	-18.75	-11.25	7.5	-7.5	18.75	-37.5	-45	-11.25
448	-45	-30	3.75	-11.25	11.25	-41.25	-52.5	-15
449	-48.75	-45	0	-18.75	3.75	-48.75	-56.25	-22.5
450	-26.25	-37.5	3.75	-15	3.75	-45	-52.5	-22.5
451	-30	-37.5	11.25	-15	3.75	-48.75	-60	-26.25
452	-48.75	-56.25	7.5	-22.5	-7.5	-60	-71.25	-33.75
453	-82.5	-90	-3.75	-37.5	-18.75	-71.25	-82.5	-48.75
454	-90	-86.25	3.75	-30	-15	-67.5	-78.75	-45
455	-67.5	-63.75	11.25	-18.75	-7.5	-60	-71.25	-33.75
456	-60	-60	11.25	-15	-3.75	-60	-67.5	-30
457	-41.25	-45	15	-7.5	0	-52.5	-63.75	-26.25
458	-41.25	-56.25	11.25	-7.5	0	-56.25	-67.5	-30
459	-67.5	-86.25	3.75	-18.75	-11.25	-67.5	-75	-41.25
460	-67.5	-78.75	0	-18.75	-11.25	-67.5	-75	-41.25
461	-60	-67.5	3.75	-15	-7.5	-63.75	-71.25	-33.75
462	-33.75	-45	11.25	-7.5	0	-56.25	-63.75	-30
463	-7.5	-30	11.25	-3.75	3.75	-52.5	-60	-30
464	-15	-41.25	3.75	-18.75	-11.25	-67.5	-71.25	-41.25
465	-18.75	-48.75	3.75	-18.75	-11.25	-63.75	-71.25	-41.25
466	0	-18.75	22.5	3.75	11.25	-45	-52.5	-18.75
467	-3.75	-7.5	30	15	22.5	-33.75	-45	-11.25
468	-41.25	-45	15	3.75	7.5	-48.75	-56.25	-22.5
469	-45	-45	11.25	7.5	7.5	-48.75	-56.25	-22.5
470	-22.5	-30	15	15	18.75	-41.25	-48.75	-15
471	-22.5	-48.75	0	7.5	11.25	-48.75	-56.25	-22.5
472	-18.75	-56.25	-7.5	0	0	-56.25	-63.75	-30
473	0	-33.75	-3.75	3.75	7.5	-48.75	-56.25	-26.25
474	-3.75	-22.5	3.75	15	15	-37.5	-45	-15
475	-7.5	-26.25	7.5	11.25	15	-37.5	-48.75	-15
476	11.25	-15	11.25	18.75	22.5	-33.75	-41.25	-15
477	15	-3.75	7.5	15	18.75	-33.75	-41.25	-15
478	7.5	0	11.25	18.75	22.5	-30	-37.5	-3.75
479	11.25	-11.25	3.75	15	18.75	-33.75	-41.25	-11.25
480	-3.75	-22.5	3.75	18.75	22.5	-30	-37.5	-11.25
481	-15	-22.5	7.5	30	33.75	-22.5	-30	0
482	3.75	-15	3.75	33.75	33.75	-18.75	-30	0
483	18.75	-7.5	0	30	33.75	-22.5	-33.75	0
484	7.5	-18.75	-7.5	22.5	30	-22.5	-33.75	0
485	7.5	-33.75	-7.5	26.25	30	-22.5	-30	0
486	26.25	-30	-3.75	30	30	-18.75	-26.25	3.75
487	26.25	-3.75	-3.75	30	33.75	-15	-22.5	3.75
488	30	18.75	-3.75	30	33.75	-11.25	-22.5	7.5
489	33.75	18.75	0	33.75	37.5	-3.75	-15	15
490	30	18.75	-3.75	33.75	37.5	-3.75	-11.25	15
491	30	11.25	-7.5	30	37.5	-3.75	-11.25	15
492	26.25	11.25	-7.5	37.5	41.25	-3.75	-11.25	15
493	41.25	37.5	3.75	52.5	56.25	7.5	0	26.25
494	48.75	26.25	-3.75	48.75	52.5	-3.75	-7.5	22.5
495	48.75	7.5	-18.75	33.75	37.5	-15	-18.75	11.25
496	41.25	11.25	-11.25	41.25	45	-7.5	-11.25	18.75
497	37.5	15	-7.5	48.75	56.25	7.5	0	26.25
498	52.5	22.5	-7.5	52.5	60	15	7.5	33.75
499	48.75	3.75	-15	41.25	52.5	7.5	0	26.25
500	52.5	3.75	-15	37.5	45	3.75	-3.75	22.5
501	75	33.75	-11.25	41.25	48.75	11.25	3.75	30
502	78.75	41.25	-15	41.25	48.75	7.5	0	26.25
503	75	45	-7.5	48.75	56.25	18.75	7.5	33.75
504	71.25	45	-3.75	56.25	63.75	22.5	15	37.5
505	60	37.5	-3.75	56.25	63.75	18.75	15	37.5
506	56.25	18.75	-18.75	48.75	52.5	11.25	3.75	33.75
507	67.5	11.25	-30	41.25	45	3.75	0	30
508	82.5	26.25	-22.5	48.75	56.25	18.75	15	45
509	93.75	41.25	-22.5	45	56.25	18.75	18.75	45
510	90	45	-22.5	52.5	63.75	26.25	26.25	52.5
511	71.25	30	-18.75	56.25	67.5	33.75	33.75	60
512	52.5	11.25	-22.5	48.75	63.75	30	30	56.25
513	75	33.75	-22.5	45	56.25	26.25	26.25	56.25
514	108.75	67.5	-18.75	48.75	60	30	30	60
515	108.75	67.5	-18.75	52.5	67.5	33.75	33.75	63.75
516	116.25	71.25	-22.5	52.5	63.75	33.75	33.75	63.75
517	127.5	86.25	-22.5	56.25	63.75	33.75	37.5	67.5
518	105	71.25	-26.25	52.5	60	26.25	30	63.75
519	112.5	60	-37.5	41.25	52.5	18.75	26.25	60
520	138.75	63.75	-41.25	41.25	48.75	18.75	30	60
521	120	45	-45	37.5	45	18.75	30	60
522	90	37.5	-48.75	33.75	45	18.75	30	67.5
523	90	48.75	-48.75	33.75	48.75	26.25	37.5	75
524	108.75	63.75	-45	37.5	48.75	30	45	78.75
525	127.5	63.75	-52.5	26.25	37.5	22.5	33.75	67.5
526	120	63.75	-52.5	18.75	30	15	26.25	63.75
527	123.75	86.25	-45	33.75	41.25	26.25	41.25	78.75
528	168.75	131.25	-30	45	56.25	41.25	56.25	97.5
529	195	142.5	-22.5	56.25	63.75	45	63.75	105
530	198.75	123.75	-37.5	48.75	52.5	33.75	56.25	97.5
531	198.75	112.5	-45	37.5	41.25	22.5	45	86.25
532	187.5	108.75	-48.75	33.75	37.5	18.75	41.25	86.25
533	183.75	120	-41.25	41.25	45	26.25	48.75	93.75
534	183.75	127.5	-41.25	37.5	45	30	52.5	97.5
535	168.75	120	-45	33.75	37.5	26.25	52.5	97.5
536	153.75	105	-45	30	33.75	22.5	48.75	93.75
537	150	93.75	-56.25	18.75	22.5	11.25	37.5	86.25
538	161.25	116.25	-52.5	22.5	22.5	11.25	41.25	90
539	172.5	127.5	-48.75	22.5	18.75	7.5	41.25	93.75
540	161.25	108.75	-48.75	18.75	15	7.5	37.5	90
541	150	101.25	-52.5	22.5	15	3.75	37.5	90
542	150	101.25	-52.5	26.25	18.75	3.75	37.5	90
543	161.25	112.5	-48.75	22.5	11.25	0	30	90
544	161.25	116.25	-45	18.75	7.5	0	30	90
545	165	108.75	-45	15	3.75	-7.5	26.25	82.5
546	172.5	108.75	-41.25	18.75	7.5	-7.5	26.25	82.5
547	168.75	105	-45	15	0	-15	18.75	78.75
548	161.25	97.5	-41.25	11.25	-3.75	-15	18.75	75
549	168.75	108.75	-30	18.75	0	-11.25	18.75	75
550	172.5	123.75	-18.75	22.5	3.75	-7.5	18.75	78.75
551	165	127.5	-11.25	30	7.5	-7.5	22.5	78.75
552	157.5	123.75	-11.25	30	7.5	-11.25	18.75	75
553	150	123.75	-7.5	33.75	7.5	-11.25	15	71.25
554	138.75	120	-3.75	37.5	11.25	-15	15	71.25
555	127.5	93.75	-18.75	18.75	-7.5	-33.75	-7.5	52.5
556	123.75	78.75	-22.5	7.5	-18.75	-45	-18.75	37.5
557	116.25	78.75	-15	15	-15	-45	-18.75	41.25
558	101.25	71.25	-7.5	26.25	-7.5	-37.5	-15	45
559	90	67.5	-3.75	26.25	-11.25	-37.5	-15	41.25
560	97.5	82.5	11.25	33.75	-3.75	-33.75	-11.25	41.25
561	105	67.5	15	33.75	0	-33.75	-15	37.5
562	75	33.75	18.75	33.75	0	-33.75	-18.75	33.75
563	56.25	52.5	18.75	33.75	-3.75	-41.25	-26.25	26.25
564	60	75	26.25	37.5	3.75	-37.5	-22.5	26.25
565	52.5	56.25	22.5	37.5	-3.75	-45	-33.75	18.75
566	37.5	37.5	15	30	-11.25	-56.25	-48.75	7.5
567	26.25	26.25	11.25	22.5	-15	-67.5	-60	-3.75
568	22.5	26.25	15	22.5	-15	-67.5	-56.25	0
569	22.5	11.25	18.75	22.5	-15	-60	-52.5	0
570	7.5	-7.5	18.75	18.75	-18.75	-60	-56.25	-7.5
571	-3.75	-11.25	18.75	15	-18.75	-63.75	-60	-15
572	3.75	0	22.5	15	-18.75	-63.75	-60	-15
573	18.75	22.5	33.75	18.75	-15	-60	-56.25	-15
574	18.75	26.25	41.25	15	-15	-63.75	-60	-15
575	-3.75	3.75	37.5	11.25	-22.5	-71.25	-67.5	-26.25
576	-11.25	-3.75	37.5	11.25	-22.5	-71.25	-71.25	-30
577	-3.75	11.25	45	22.5	-7.5	-60	-60	-18.75
578	-7.5	3.75	45	22.5	-11.25	-60	-60	-22.5
579	-33.75	-30	33.75	7.5	-22.5	-75	-75	-33.75
580	-48.75	-52.5	22.5	-7.5	-37.5	-90	-90	-45
581	-56.25	-52.5	22.5	-15	-41.25	-97.5	-97.5	-48.75
582	-60	-37.5	30	-11.25	-37.5	-93.75	-93.75	-45
583	-52.5	-26.25	33.75	-7.5	-37.5	-90	-86.25	-48.75
584	-30	-15	37.5	-11.25	-37.5	-82.5	-86.25	-48.75
585	-15	-3.75	41.25	-11.25	-33.75	-75	-78.75	-45
586	-26.25	-7.5	45	-7.5	-30	-71.25	-78.75	-45
587	-60	-33.75	41.25	-18.75	-41.25	-86.25	-90	-56.25
588	-63.75	-37.5	37.5	-22.5	-45	-90	-93.75	-60
589	-18.75	7.5	52.5	-3.75	-30	-75	-75	-41.25
590	-3.75	15	56.25	3.75	-22.5	-75	-75	-41.25
591	-41.25	-30	45	-7.5	-33.75	-86.25	-86.25	-52.5
592	-71.25	-63.75	33.75	-26.25	-48.75	-101.25	-101.25	-63.75
593	-75	-60	33.75	-30	-52.5	-101.25	-105	-67.5
594	-60	-41.25	33.75	-30	-48.75	-101.25	-105	-67.5
595	-67.5	-60	30	-37.5	-56.25	-105	-108.75	-75
596	-105	-97.5	22.5	-48.75	-67.5	-116.25	-116.25	-82.5
597	-120	-93.75	26.25	-48.75	-63.75	-112.5	-112.5	-78.75
598	-82.5	-52.5	37.5	-41.25	-60	-105	-105	-71.25
599	-56.25	-37.5	41.25	-37.5	-60	-105	-105	-71.25
600	-60	-48.75	30	-48.75	-67.5	-112.5	-116.25	-82.5
601	-86.25	-63.75	26.25	-48.75	-67.5	-116.25	-116.25	-86.25
602	-105	-71.25	30	-41.25	-63.75	-112.5	-112.5	-78.75
603	-78.75	-60	37.5	-30	-52.5	-101.25	-108.75	-71.25
604	-60	-48.75	37.5	-33.75	-52.5	-101.25	-105	-71.25
605	-63.75	-48.75	33.75	-37.5	-56.25	-105	-108.75	-71.25
606	-75	-60	33.75	-37.5	-56.25	-105	-108.75	-71.25
607	-97.5	-78.75	30	-41.25	-56.25	-108.75	-108.75	-75
608	-108.75	-90	26.25	-52.5	-67.5	-116.25	-120	-82.5
609	-93.75	-71.25	30	-48.75	-63.75	-112.5	-112.5	-78.75
610	-75	-41.25	45	-30	-48.75	-93.75	-97.5	-63.75
611	-75	-37.5	41.25	-33.75	-48.75	-97.5	-101.25	-67.5
612	-82.5	-45	41.25	-30	-52.5	-97.5	-101.25	-71.25
613	-93.75	-56.25	37.5	-30	-48.75	-97.5	-101.25	-71.25
614	-93.75	-60	30	-33.75	-52.5	-101.25	-108.75	-75
615	-86.25	-52.5	33.75	-30	-48.75	-97.5	-105	-75
616	-93.75	-60	33.75	-30	-48.75	-97.5	-101.25	-71.25
617	-93.75	-60	41.25	-22.5	-41.25	-90	-93.75	-63.75
618	-75	-52.5	37.5	-26.25	-41.25	-90	-93.75	-67.5
619	-101.25	-75	22.5	-41.25	-56.25	-101.25	-108.75	-78.75
620	-131.25	-93.75	15	-48.75	-63.75	-108.75	-116.25	-86.25
621	-120	-82.5	15	-52.5	-63.75	-108.75	-112.5	-86.25
622	-86.25	-60	18.75	-48.75	-60	-101.25	-108.75	-82.5
623	-63.75	-41.25	30	-33.75	-48.75	-90	-97.5	-71.25
624	-63.75	-33.75	33.75	-30	-45	-86.25	-93.75	-67.5
625	-78.75	-30	33.75	-22.5	-37.5	-82.5	-90	-60
626	-75	-30	30	-18.75	-33.75	-86.25	-90	-56.25
627	-56.25	-37.5	26.25	-26.25	-41.25	-93.75	-97.5	-63.75
628	-60	-45	26.25	-30	-45	-93.75	-97.5	-63.75
629	-78.75	-52.5	18.75	-30	-45	-93.75	-93.75	-63.75
630	-82.5	-63.75	11.25	-37.5	-48.75	-97.5	-101.25	-67.5
631	-82.5	-75	11.25	-41.25	-56.25	-101.25	-108.75	-75
632	-82.5	-71.25	15	-41.25	-56.25	-105	-112.5	-78.75
633	-78.75	-56.25	18.75	-41.25	-52.5	-101.25	-105	-75
634	-90	-52.5	30	-33.75	-45	-90	-93.75	-63.75
635	-78.75	-48.75	30	-30	-37.5	-86.25	-90	-60
636	-63.75	-41.25	26.25	-30	-37.5	-86.25	-90	-60
637	-56.25	-33.75	33.75	-18.75	-30	-78.75	-82.5	-48.75
638	-45	-30	33.75	-11.25	-26.25	-75	-78.75	-45
639	-52.5	-30	22.5	-26.25	-37.5	-86.25	-86.25	-52.5
640	-67.5	-33.75	15	-33.75	-41.25	-90	-90	-56.25
641	-60	-37.5	18.75	-30	-41.25	-86.25	-90	-56.25
642	-67.5	-52.5	11.25	-37.5	-48.75	-93.75	-97.5	-63.75
643	-75	-67.5	3.75	-45	-56.25	-101.25	-97.5	-67.5
644	-56.25	-48.75	15	-41.25	-48.75	-93.75	-90	-56.25
645	-48.75	-30	18.75	-37.5	-45	-90	-86.25	-56.25
646	-75	-45	18.75	-41.25	-48.75	-93.75	-90	-56.25
647	-105	-60	15	-41.25	-48.75	-90	-90	-56.25
648	-112.5	-60	18.75	-33.75	-41.25	-82.5	-82.5	-52.5
649	-86.25	-41.25	22.5	-30	-37.5	-82.5	-78.75	-48.75
650	-56.25	-22.5	26.25	-22.5	-30	-75	-75	-41.25
651	-52.5	-26.25	18.75	-26.25	-33.75	-82.5	-78.75	-45
652	-60	-26.25	11.25	-33.75	-45	-90	-86.25	-52.5
653	-60	-18.75	15	-33.75	-41.25	-86.25	-86.25	-52.5
654	-56.25	-26.25	11.25	-41.25	-48.75	-90	-90	-60
655	-56.25	-33.75	7.5	-45	-52.5	-93.75	-90	-60
656	-75	-52.5	7.5	-48.75	-52.5	-93.75	-90	-60
657	-86.25	-63.75	7.5	-52.5	-52.5	-93.75	-90	-63.75
658	-67.5	-41.25	11.25	-48.75	-48.75	-93.75	-90	-60
659	-52.5	-18.75	15	-41.25	-48.75	-90	-86.25	-56.25
660	-71.25	-30	11.25	-45	-48.75	-90	-82.5	-56.25
661	-67.5	-22.5	15	-37.5	-41.25	-82.5	-75	-48.75
662	-56.25	-22.5	11.25	-33.75	-37.5	-82.5	-78.75	-52.5
663	-71.25	-56.25	0	-52.5	-56.25	-101.25	-93.75	-67.5
664	-78.75	-60	-3.75	-56.25	-63.75	-101.25	-97.5	-67.5
665	-71.25	-37.5	3.75	-45	-52.5	-93.75	-86.25	-56.25
666	-56.25	-18.75	7.5	-41.25	-45	-86.25	-82.5	-48.75
667	-45	-26.25	7.5	-45	-52.5	-90	-82.5	-52.5
668	-60	-56.25	-3.75	-60	-67.5	-101.25	-97.5	-63.75
669	-78.75	-63.75	-3.75	-63.75	-67.5	-101.25	-97.5	-71.25
670	-75	-41.25	7.5	-56.25	-56.25	-90	-90	-60
671	-60	-22.5	7.5	-52.5	-56.25	-90	-86.25	-60
672	-48.75	-11.25	11.25	-52.5	-56.25	-90	-82.5	-56.25
673	-52.5	-15	7.5	-48.75	-56.25	-90	-86.25	-56.25
674	-63.75	-30	0	-52.5	-60	-93.75	-90	-60
675	-75	-52.5	-3.75	-60	-67.5	-101.25	-93.75	-63.75
676	-82.5	-63.75	-11.25	-75	-78.75	-112.5	-105	-71.25
677	-93.75	-75	-18.75	-78.75	-86.25	-123.75	-116.25	-78.75
678	-97.5	-71.25	-11.25	-71.25	-78.75	-116.25	-108.75	-71.25
679	-101.25	-63.75	-3.75	-71.25	-75	-112.5	-101.25	-71.25
680	-75	-48.75	-11.25	-82.5	-82.5	-112.5	-105	-75
681	-60	-45	-7.5	-78.75	-78.75	-105	-97.5	-71.25
682	-52.5	-33.75	3.75	-71.25	-75	-97.5	-90	-63.75
683	-71.25	-45	3.75	-71.25	-75	-101.25	-93.75	-63.75
684	-93.75	-63.75	0	-75	-78.75	-108.75	-101.25	-67.5
685	-90	-48.75	11.25	-60	-63.75	-97.5	-90	-56.25
686	-67.5	-37.5	3.75	-60	-63.75	-101.25	-93.75	-60
687	-56.25	-48.75	-11.25	-75	-82.5	-120	-108.75	-75
688	-63.75	-60	-18.75	-86.25	-97.5	-131.25	-120	-86.25
689	-56.25	-45	-15	-82.5	-90	-120	-108.75	-75
690	-45	-33.75	-11.25	-78.75	-82.5	-108.75	-101.25	-67.5
691	-60	-52.5	-18.75	-86.25	-90	-120	-108.75	-78.75
692	-108.75	-82.5	-22.5	-97.5	-97.5	-131.25	-120	-86.25
693	-138.75	-108.75	-30	-108.75	-108.75	-135	-127.5	-93.75
694	-123.75	-101.25	-26.25	-105	-105	-131.25	-120	-90
695	-105	-71.25	-7.5	-86.25	-86.25	-116.25	-105	-75
696	-86.25	-48.75	3.75	-75	-78.75	-108.75	-97.5	-67.5
697	-48.75	-15	11.25	-67.5	-71.25	-101.25	-90	-60
698	-48.75	-26.25	7.5	-67.5	-71.25	-105	-93.75	-60
699	-78.75	-67.5	-7.5	-86.25	-93.75	-127.5	-112.5	-82.5
700	-97.5	-75	-7.5	-90	-97.5	-127.5	-116.25	-82.5
701	-101.25	-71.25	-15	-90	-93.75	-123.75	-112.5	-78.75
702	-108.75	-86.25	-22.5	-97.5	-101.25	-131.25	-120	-82.5
703	-112.5	-93.75	-26.25	-101.25	-105	-135	-123.75	-86.25
704	-105	-93.75	-22.5	-101.25	-105	-135	-123.75	-86.25
705	-93.75	-86.25	-15	-97.5	-105	-131.25	-116.25	-82.5
706	-86.25	-63.75	-7.5	-93.75	-101.25	-127.5	-116.25	-78.75
707	-86.25	-52.5	-7.5	-93.75	-97.5	-127.5	-116.25	-86.25
708	-97.5	-67.5	-7.5	-90	-97.5	-127.5	-116.25	-86.25
709	-101.25	-67.5	-3.75	-86.25	-97.5	-127.5	-116.25	-82.5
710	-86.25	-60	-7.5	-86.25	-97.5	-127.5	-116.25	-82.5
711	-78.75	-60	-7.5	-86.25	-97.5	-127.5	-116.25	-82.5
712	-52.5	-33.75	-7.5	-82.5	-93.75	-123.75	-116.25	-82.5
713	-56.25	-33.75	-11.25	-90	-101.25	-131.25	-120	-86.25
714	-90	-63.75	-18.75	-97.5	-108.75	-138.75	-127.5	-93.75
715	-97.5	-71.25	-18.75	-101.25	-112.5	-138.75	-127.5	-93.75
716	-75	-63.75	-7.5	-97.5	-105	-131.25	-120	-86.25
717	-75	-75	-11.25	-101.25	-112.5	-138.75	-123.75	-90
718	-90	-75	-11.25	-97.5	-108.75	-135	-123.75	-90
719	-86.25	-60	-3.75	-86.25	-97.5	-127.5	-112.5	-78.75
720	-97.5	-60	-3.75	-82.5	-93.75	-123.75	-108.75	-75
721	-120	-67.5	0	-82.5	-93.75	-123.75	-108.75	-75
722	-116.25	-82.5	-15	-93.75	-105	-135	-123.75	-90
723	-108.75	-90	-22.5	-101.25	-112.5	-142.5	-131.25	-93.75
724	-93.75	-82.5	-18.75	-101.25	-112.5	-142.5	-127.5	-90
725	-75	-71.25	-22.5	-105	-116.25	-146.25	-131.25	-93.75
726	-75	-67.5	-18.75	-101.25	-108.75	-142.5	-127.5	-86.25
727	-101.25	-82.5	-22.5	-97.5	-112.5	-142.5	-127.5	-82.5
728	-123.75	-97.5	-30	-108.75	-120	-146.25	-127.5	-90
729	-123.75	-86.25	-18.75	-105	-112.5	-135	-120	-86.25
730	-97.5	-60	-11.25	-97.5	-108.75	-127.5	-116.25	-86.25
731	-101.25	-71.25	-15	-101.25	-112.5	-135	-120	-90
732	-97.5	-71.25	-22.5	-108.75	-120	-142.5	-127.5	-93.75
733	-93.75	-63.75	-15	-97.5	-112.5	-135	-123.75	-86.25
734	-105	-75	-15	-90	-105	-135	-120	-82.5
735	-101.25	-75	-22.5	-97.5	-108.75	-138.75	-123.75	-86.25
736	-97.5	-71.25	-30	-105	-120	-142.5	-127.5	-86.25
737	-101.25	-75	-26.25	-105	-116.25	-138.75	-123.75	-82.5
738	-116.25	-90	-26.25	-105	-112.5	-138.75	-120	-82.5
739	-108.75	-86.25	-22.5	-101.25	-108.75	-135	-120	-78.75
740	-71.25	-60	-18.75	-101.25	-108.75	-135	-116.25	-78.75
741	-71.25	-52.5	-18.75	-105	-112.5	-135	-120	-82.5
742	-108.75	-67.5	-18.75	-105	-112.5	-135	-120	-86.25
743	-131.25	-67.5	-3.75	-93.75	-105	-127.5	-112.5	-75
744	-108.75	-48.75	3.75	-82.5	-97.5	-120	-105	-67.5
745	-45	0	11.25	-67.5	-82.5	-108.75	-93.75	-56.25
746	-7.5	33.75	18.75	-56.25	-71.25	-101.25	-90	-48.75
747	-37.5	7.5	15	-63.75	-78.75	-108.75	-97.5	-60
748	-90	-41.25	0	-78.75	-93.75	-123.75	-112.5	-75
749	-105	-41.25	7.5	-75	-90	-123.75	-108.75	-71.25
750	-101.25	-33.75	15	-71.25	-90	-123.75	-108.75	-71.25
751	-120	-63.75	11.25	-82.5	-97.5	-127.5	-120	-78.75
752	-116.25	-56.25	18.75	-78.75	-90	-123.75	-112.5	-75
753	-71.25	-7.5	45	-48.75	-67.5	-101.25	-90	-56.25
754	-52.5	11.25	48.75	-41.25	-63.75	-101.25	-90	-56.25
755	-52.5	11.25	45	-45	-67.5	-105	-93.75	-60
756	-56.25	15	45	-45	-67.5	-101.25	-93.75	-60
757	-56.25	26.25	52.5	-30	-56.25	-93.75	-86.25	-52.5
758	-60	15	56.25	-22.5	-52.5	-90	-86.25	-48.75
759	-52.5	-7.5	48.75	-30	-63.75	-101.25	-93.75	-60
760	-48.75	-3.75	52.5	-30	-56.25	-97.5	-86.25	-52.5
761	-48.75	22.5	67.5	-15	-41.25	-78.75	-67.5	-33.75
762	-41.25	37.5	71.25	-11.25	-33.75	-71.25	-60	-26.25
763	-48.75	26.25	60	-22.5	-45	-75	-63.75	-30
764	-60	15	45	-37.5	-52.5	-82.5	-71.25	-33.75
765	-71.25	7.5	33.75	-45	-56.25	-82.5	-71.25	-37.5
766	-101.25	-22.5	18.75	-56.25	-67.5	-90	-75	-41.25
767	-105	-18.75	7.5	-56.25	-67.5	-90	-75	-41.25
768	-56.25	18.75	0	-52.5	-60	-82.5	-71.25	-30
769	-11.25	45	-7.5	-48.75	-56.25	-78.75	-63.75	-22.5
770	-7.5	41.25	-15	-52.5	-56.25	-82.5	-63.75	-26.25
771	-22.5	22.5	-22.5	-56.25	-60	-86.25	-71.25	-30
772	-45	15	-26.25	-63.75	-67.5	-86.25	-71.25	-30
773	-52.5	11.25	-30	-71.25	-71.25	-90	-71.25	-30
774	-48.75	-3.75	-41.25	-82.5	-78.75	-101.25	-82.5	-37.5
775	-52.5	-26.25	-48.75	-97.5	-93.75	-112.5	-93.75	-45
776	-52.5	-30	-52.5	-105	-97.5	-116.25	-93.75	-52.5
777	-52.5	-26.25	-48.75	-105	-97.5	-116.25	-93.75	-52.5
778	-45	-30	-37.5	-101.25	-93.75	-112.5	-90	-45
779	-33.75	-30	-45	-112.5	-108.75	-127.5	-108.75	-63.75
780	-33.75	-18.75	-48.75	-112.5	-112.5	-131.25	-112.5	-71.25
781	-26.25	-7.5	-26.25	-90	-90	-112.5	-97.5	-56.25
782	-26.25	-11.25	-22.5	-82.5	-82.5	-112.5	-93.75	-52.5
783	-45	-33.75	-33.75	-93.75	-97.5	-123.75	-105	-63.75
784	-60	-41.25	-33.75	-97.5	-101.25	-127.5	-105	-63.75
785	-75	-37.5	-22.5	-90	-93.75	-116.25	-101.25	-52.5
786	-75	-45	-22.5	-90	-93.75	-120	-105	-60
787	-63.75	-45	-26.25	-97.5	-101.25	-131.25	-112.5	-67.5
788	-56.25	-37.5	-22.5	-101.25	-105	-131.25	-108.75	-67.5
789	-63.75	-37.5	-26.25	-108.75	-112.5	-135	-116.25	-75
790	-71.25	-41.25	-26.25	-108.75	-112.5	-135	-120	-78.75
791	-82.5	-45	-22.5	-105	-108.75	-131.25	-116.25	-78.75
792	-120	-75	-30	-112.5	-120	-146.25	-131.25	-90
793	-127.5	-90	-33.75	-116.25	-127.5	-153.75	-135	-93.75
794	-97.5	-78.75	-33.75	-112.5	-123.75	-150	-135	-93.75
795	-67.5	-63.75	-33.75	-116.25	-127.5	-153.75	-135	-93.75
796	-78.75	-71.25	-37.5	-123.75	-131.25	-157.5	-142.5	-101.25
797	-108.75	-82.5	-41.25	-127.5	-138.75	-161.25	-146.25	-105
798	-116.25	-82.5	-37.5	-127.5	-135	-157.5	-142.5	-101.25
799	-101.25	-75	-37.5	-127.5	-135	-157.5	-142.5	-97.5
800	-90	-75	-37.5	-127.5	-135	-157.5	-138.75	-97.5
801	-86.25	-67.5	-30	-120	-127.5	-146.25	-131.25	-93.75
802	-93.75	-63.75	-22.5	-116.25	-120	-138.75	-123.75	-86.25
803	-105	-75	-26.25	-123.75	-127.5	-146.25	-131.25	-90
804	-112.5	-82.5	-26.25	-123.75	-127.5	-153.75	-138.75	-93.75
805	-120	-86.25	-26.25	-120	-127.5	-157.5	-138.75	-93.75
806	-123.75	-90	-30	-116.25	-131.25	-157.5	-138.75	-97.5
807	-108.75	-82.5	-33.75	-120	-131.25	-153.75	-138.75	-97.5
808	-105	-78.75	-37.5	-120	-127.5	-150	-131.25	-97.5
809	-108.75	-78.75	-41.25	-123.75	-131.25	-150	-135	-97.5
810	-105	-78.75	-41.25	-120	-127.5	-150	-135	-97.5
811	-105	-75	-37.5	-120	-127.5	-150	-131.25	-93.75
812	-105	-75	-33.75	-123.75	-131.25	-153.75	-135	-97.5
813	-108.75	-78.75	-37.5	-127.5	-135	-153.75	-138.75	-105
814	-108.75	-82.5	-37.5	-127.5	-135	-157.5	-142.5	-105
815	-93.75	-67.5	-30	-120	-127.5	-146.25	-135	-97.5
816	-93.75	-48.75	-22.5	-112.5	-116.25	-135	-120	-82.5
817	-93.75	-41.25	-15	-101.25	-105	-127.5	-112.5	-75
818	-90	-60	-15	-101.25	-108.75	-138.75	-123.75	-86.25
819	-86.25	-82.5	-22.5	-105	-123.75	-161.25	-150	-112.5
820	-71.25	-90	0	-82.5	-120	-165	-161.25	-127.5
821	-78.75	-120	33.75	-45	-112.5	-183.75	-191.25	-157.5
822	-105	-165	75	-7.5	-112.5	-206.25	-225	-195
823	-101.25	-180	127.5	33.75	-108.75	-225	-251.25	-225
824	-97.5	-176.25	183.75	82.5	-93.75	-225	-258.75	-232.5
825	-93.75	-165	221.25	131.25	-63.75	-210	-247.5	-225
826	-56.25	-101.25	266.25	210	0	-161.25	-206.25	-187.5
827	-11.25	-33.75	303.75	292.5	71.25	-105	-153.75	-142.5
828	37.5	11.25	318.75	352.5	131.25	-48.75	-105	-101.25
829	93.75	78.75	333.75	412.5	195	15	-45	-45
830	138.75	146.25	348.75	465	258.75	86.25	30	26.25
831	191.25	187.5	337.5	498.75	307.5	150	93.75	90
832	285	277.5	318.75	551.25	390	243.75	195	187.5
833	371.25	405	300	600	487.5	363.75	318.75	307.5
834	420	521.25	262.5	603.75	555	472.5	438.75	420
835	480	633.75	195	581.25	618.75	588.75	566.25	547.5
836	521.25	765	161.25	611.25	731.25	742.5	727.5	701.25
837	551.25	948.75	165	686.25	877.5	922.5	915	877.5
838	603.75	1185	108.75	682.5	982.5	1098.75	1121.25	1087.5
839	641.25	1387.5	-15	603.75	1046.25	1256.25	1320	1293.75
840	678.75	1466.25	-138.75	502.5	1083.75	1376.25	1462.5	1440
841	727.5	1518.75	-258.75	345	1072.5	1455	1575	1548.75
842	712.5	1552.5	-333.75	221.25	1076.25	1533.75	1668.75	1631.25
843	611.25	1462.5	-333.75	210	1128.75	1601.25	1713.75	1638.75
844	517.5	1361.25	-315	217.5	1188.75	1665	1740	1620
845	435	1305	-330	150	1196.25	1676.25	1736.25	1590
846	352.5	1218.75	-356.25	33.75	1121.25	1597.5	1646.25	1500
847	243.75	1057.5	-348.75	-78.75	975	1410	1451.25	1320
848	112.5	870	-318.75	-180	776.25	1140	1173.75	1065
849	-7.5	693.75	-307.5	-303.75	525	825	877.5	825
850	-123.75	517.5	-330	-461.25	236.25	498.75	585	596.25
851	-228.75	363.75	-352.5	-600	-15	225	333.75	390
852	-277.5	258.75	-345	-656.25	-153.75	52.5	157.5	228.75
853	-262.5	195	-307.5	-618.75	-176.25	-15	56.25	116.25
854	-270	105	-303.75	-592.5	-187.5	-60	-11.25	37.5
855	-285	37.5	-318.75	-555	-176.25	-63.75	-26.25	11.25
856	-243.75	30	-315	-502.5	-146.25	-45	-11.25	15
857	-198.75	37.5	-303.75	-453.75	-138.75	-45	-7.5	18.75
858	-187.5	18.75	-292.5	-427.5	-165	-75	-30	3.75
859	-187.5	-11.25	-277.5	-397.5	-180	-101.25	-56.25	-15
860	-165	-15	-243.75	-348.75	-161.25	-97.5	-56.25	-15
861	-138.75	0	-213.75	-292.5	-131.25	-78.75	-45	-7.5
862	-101.25	37.5	-176.25	-221.25	-78.75	-41.25	-15	15
863	-60	67.5	-135	-150	-26.25	-7.5	11.25	33.75
864	-33.75	86.25	-93.75	-97.5	7.5	11.25	18.75	41.25
865	-41.25	86.25	-56.25	-56.25	26.25	18.75	22.5	45
866	-75	48.75	-48.75	-48.75	22.5	3.75	3.75	30
867	-82.5	11.25	-52.5	-52.5	7.5	-11.25	-15	7.5
868	-90	-11.25	-45	-52.5	0	-18.75	-22.5	-3.75
869	-97.5	-3.75	-30	-41.25	3.75	-18.75	-18.75	-7.5
870	-78.75	7.5	-26.25	-41.25	0	-26.25	-26.25	-11.25
871	-56.25	0	-26.25	-48.75	-15	-41.25	-41.25	-22.5
872	-52.5	-7.5	-30	-60	-26.25	-52.5	-52.5	-33.75
873	-67.5	-18.75	-26.25	-63.75	-30	-60	-60	-37.5
874	-90	-30	-18.75	-60	-33.75	-63.75	-63.75	-41.25
875	-82.5	-11.25	-11.25	-45	-30	-60	-60	-33.75
876	-37.5	11.25	-11.25	-45	-30	-60	-60	-37.5
877	-15	26.25	-3.75	-37.5	-22.5	-52.5	-56.25	-33.75
878	-26.25	18.75	-3.75	-30	-22.5	-52.5	-56.25	-30
879	-45	-7.5	-7.5	-30	-26.25	-60	-60	-33.75
880	-48.75	-18.75	-7.5	-37.5	-30	-63.75	-63.75	-37.5
881	-37.5	-3.75	-7.5	-33.75	-33.75	-63.75	-63.75	-33.75
882	-37.5	-3.75	-3.75	-33.75	-33.75	-63.75	-63.75	-37.5
883	-52.5	-26.25	-11.25	-41.25	-41.25	-75	-75	-52.5
884	-52.5	-30	-15	-45	-45	-75	-78.75	-56.25
885	-48.75	-30	-18.75	-48.75	-48.75	-78.75	-78.75	-56.25
886	-52.5	-26.25	-15	-48.75	-48.75	-78.75	-78.75	-56.25
887	-37.5	0	-11.25	-41.25	-41.25	-71.25	-71.25	-48.75
888	-22.5	15	0	-26.25	-33.75	-60	-63.75	-37.5
889	-22.5	15	3.75	-18.75	-26.25	-56.25	-60	-33.75
890	-22.5	15	-3.75	-18.75	-30	-60	-63.75	-37.5
891	-30	0	-15	-30	-41.25	-71.25	-71.25	-45
892	-33.75	-11.25	-15	-30	-37.5	-71.25	-67.5	-41.25
893	-41.25	-22.5	-15	-30	-33.75	-67.5	-67.5	-41.25
894	-63.75	-41.25	-18.75	-33.75	-41.25	-71.25	-71.25	-48.75
895	-56.25	-30	-15	-30	-37.5	-67.5	-67.5	-45
896	-33.75	-7.5	-15	-30	-33.75	-67.5	-63.75	-41.25
897	-33.75	-11.25	-15	-30	-30	-60	-60	-33.75
898	-37.5	-11.25	-15	-30	-30	-60	-56.25	-30
899	-30	3.75	-7.5	-18.75	-30	-52.5	-52.5	-26.25
900	-48.75	-11.25	-15	-22.5	-33.75	-63.75	-56.25	-33.75
901	-37.5	-11.25	-18.75	-22.5	-30	-63.75	-60	-37.5
902	-7.5	11.25	-15	-11.25	-18.75	-56.25	-52.5	-26.25
903	18.75	33.75	-3.75	0	-7.5	-45	-41.25	-15
904	18.75	30	-11.25	-7.5	-15	-52.5	-45	-22.5
905	0	15	-18.75	-11.25	-18.75	-56.25	-48.75	-26.25
906	-3.75	11.25	-18.75	-11.25	-15	-52.5	-48.75	-22.5
907	3.75	11.25	-18.75	-11.25	-15	-52.5	-48.75	-22.5
908	3.75	7.5	-22.5	-15	-15	-52.5	-48.75	-22.5
909	-7.5	15	-18.75	-11.25	-11.25	-45	-41.25	-18.75
910	-15	22.5	-11.25	-3.75	-3.75	-33.75	-30	-7.5
911	-7.5	26.25	-11.25	0	0	-30	-26.25	-7.5
912	-3.75	33.75	-7.5	3.75	3.75	-26.25	-22.5	0
913	15	37.5	-3.75	15	15	-18.75	-11.25	7.5
914	11.25	22.5	-3.75	22.5	15	-18.75	-11.25	7.5
915	-15	7.5	-22.5	3.75	0	-30	-26.25	-3.75
916	-7.5	22.5	-26.25	3.75	0	-30	-26.25	-3.75
917	15	33.75	-18.75	11.25	11.25	-18.75	-11.25	7.5
918	33.75	33.75	-22.5	15	18.75	-11.25	-7.5	11.25
919	41.25	30	-30	7.5	7.5	-22.5	-15	3.75
920	33.75	22.5	-26.25	11.25	7.5	-22.5	-15	7.5
921	18.75	22.5	-22.5	15	11.25	-15	-7.5	11.25
922	3.75	26.25	-22.5	15	15	-11.25	-7.5	11.25
923	11.25	30	-22.5	15	11.25	-15	-11.25	11.25
924	30	41.25	-22.5	18.75	11.25	-11.25	-7.5	11.25
925	52.5	71.25	-7.5	41.25	33.75	3.75	11.25	26.25
926	71.25	90	-3.75	45	41.25	11.25	15	33.75
927	60	67.5	-18.75	37.5	30	0	7.5	26.25
928	37.5	37.5	-30	26.25	22.5	-11.25	-3.75	22.5
929	37.5	37.5	-30	26.25	22.5	-7.5	0	26.25
930	52.5	45	-30	26.25	22.5	-7.5	3.75	30
931	71.25	60	-26.25	33.75	30	3.75	11.25	37.5
932	67.5	60	-26.25	33.75	33.75	15	18.75	37.5
933	48.75	45	-30	30	33.75	15	22.5	37.5
934	37.5	41.25	-26.25	30	33.75	15	22.5	41.25
935	33.75	37.5	-33.75	26.25	30	7.5	15	33.75
936	26.25	33.75	-37.5	22.5	26.25	7.5	11.25	33.75
937	56.25	67.5	-22.5	45	45	26.25	33.75	52.5
938	112.5	116.25	-11.25	63.75	63.75	41.25	48.75	71.25
939	135	123.75	-15	63.75	63.75	45	52.5	75
940	108.75	90	-33.75	48.75	48.75	30	41.25	60
941	82.5	67.5	-45	37.5	41.25	22.5	33.75	52.5
942	123.75	105	-37.5	48.75	48.75	30	41.25	63.75
943	157.5	138.75	-30	56.25	60	41.25	52.5	75
944	101.25	86.25	-41.25	41.25	45	30	41.25	63.75
945	60	52.5	-48.75	30	37.5	22.5	30	56.25
946	75	67.5	-56.25	26.25	33.75	18.75	30	52.5
947	93.75	82.5	-56.25	30	30	18.75	33.75	56.25
948	97.5	86.25	-52.5	30	30	22.5	37.5	63.75
949	105	105	-37.5	52.5	52.5	45	56.25	78.75
950	108.75	116.25	-33.75	63.75	60	52.5	63.75	90
951	101.25	105	-45	52.5	48.75	41.25	56.25	82.5
952	97.5	97.5	-52.5	48.75	45	37.5	52.5	82.5
953	131.25	120	-48.75	48.75	45	45	60	86.25
954	161.25	127.5	-56.25	45	41.25	41.25	56.25	86.25
955	157.5	116.25	-63.75	37.5	33.75	33.75	48.75	82.5
956	146.25	112.5	-63.75	33.75	33.75	33.75	52.5	86.25
957	138.75	105	-67.5	22.5	22.5	26.25	48.75	78.75
958	146.25	116.25	-60	30	26.25	33.75	56.25	86.25
959	165	146.25	-41.25	48.75	45	48.75	71.25	105
960	165	146.25	-45	45	37.5	45	67.5	101.25
961	168.75	161.25	-37.5	52.5	41.25	45	67.5	105
962	176.25	168.75	-33.75	56.25	48.75	52.5	71.25	112.5
963	157.5	138.75	-52.5	41.25	30	33.75	56.25	97.5
964	138.75	120	-60	30	18.75	26.25	52.5	90
965	138.75	116.25	-60	30	15	26.25	52.5	93.75
966	150	127.5	-52.5	37.5	22.5	33.75	60	105
967	161.25	146.25	-48.75	37.5	22.5	30	60	105
968	180	153.75	-48.75	30	11.25	26.25	52.5	97.5
969	172.5	138.75	-52.5	26.25	7.5	22.5	48.75	93.75
970	153.75	131.25	-48.75	26.25	7.5	18.75	45	90
971	157.5	142.5	-45	26.25	11.25	18.75	48.75	93.75
972	150	146.25	-41.25	33.75	7.5	22.5	52.5	97.5
973	135	142.5	-33.75	37.5	11.25	22.5	52.5	101.25
974	150	138.75	-37.5	37.5	11.25	15	45	93.75
975	165	135	-45	30	3.75	7.5	37.5	86.25
976	153.75	135	-37.5	33.75	0	7.5	37.5	86.25
977	153.75	146.25	-30	37.5	7.5	11.25	41.25	90
978	161.25	157.5	-26.25	41.25	11.25	11.25	41.25	90
979	146.25	123.75	-22.5	41.25	7.5	7.5	37.5	86.25
980	123.75	86.25	-22.5	30	-3.75	-3.75	26.25	75
981	120	105	-22.5	26.25	-11.25	-7.5	22.5	67.5
982	108.75	120	-22.5	22.5	-15	-15	15	60
983	101.25	112.5	-15	30	-11.25	-15	15	56.25
984	101.25	112.5	-7.5	30	-7.5	-15	15	56.25
985	108.75	123.75	0	37.5	-3.75	-15	15	56.25
986	120	127.5	7.5	45	0	-15	11.25	56.25
987	97.5	101.25	0	37.5	-11.25	-22.5	3.75	45
988	67.5	67.5	-7.5	26.25	-22.5	-33.75	-7.5	30
989	48.75	48.75	-11.25	15	-37.5	-48.75	-22.5	18.75
990	37.5	45	-11.25	15	-37.5	-52.5	-26.25	15
991	18.75	37.5	0	18.75	-33.75	-52.5	-26.25	11.25
992	22.5	45	11.25	18.75	-30	-45	-22.5	11.25
993	15	41.25	15	18.75	-30	-45	-26.25	7.5
994	0	26.25	11.25	11.25	-37.5	-60	-41.25	0
995	3.75	26.25	7.5	11.25	-41.25	-63.75	-45	-3.75
996	33.75	56.25	18.75	15	-33.75	-56.25	-37.5	3.75
997	37.5	75	37.5	26.25	-22.5	-41.25	-26.25	11.25
998	18.75	67.5	37.5	30	-18.75	-37.5	-22.5	7.5
999	-7.5	37.5	22.5	18.75	-30	-48.75	-37.5	-7.5
1000	-26.25	3.75	15	0	-45	-63.75	-52.5	-22.5
1001	-26.25	0	18.75	0	-45	-63.75	-52.5	-22.5
1002	-15	3.75	22.5	3.75	-41.25	-63.75	-52.5	-18.75
1003	0	7.5	18.75	-11.25	-52.5	-71.25	-60	-30
1004	-7.5	11.25	18.75	-15	-56.25	-78.75	-63.75	-33.75
1005	-22.5	0	18.75	-18.75	-56.25	-75	-63.75	-37.5
1006	-67.5	-45	0	-37.5	-71.25	-93.75	-82.5	-60
1007	-108.75	-67.5	-3.75	-48.75	-78.75	-101.25	-90	-63.75
1008	-105	-48.75	3.75	-41.25	-75	-93.75	-82.5	-60
1009	-78.75	-22.5	18.75	-22.5	-60	-78.75	-71.25	-45
1010	-37.5	7.5	26.25	-18.75	-56.25	-78.75	-67.5	-37.5
1011	-22.5	15	30	-18.75	-56.25	-82.5	-71.25	-41.25
1012	-52.5	-3.75	33.75	-22.5	-56.25	-82.5	-71.25	-41.25
1013	-63.75	-15	30	-30	-63.75	-90	-78.75	-45
1014	-75	-41.25	18.75	-45	-75	-101.25	-90	-56.25
1015	-86.25	-60	7.5	-56.25	-86.25	-108.75	-97.5	-67.5
1016	-75	-52.5	3.75	-63.75	-90	-108.75	-97.5	-67.5
1017	-82.5	-48.75	7.5	-67.5	-93.75	-112.5	-101.25	-67.5
1018	-97.5	-48.75	11.25	-63.75	-90	-108.75	-97.5	-67.5
1019	-97.5	-45	11.25	-63.75	-93.75	-112.5	-101.25	-71.25
1020	-82.5	-30	18.75	-60	-86.25	-105	-93.75	-67.5
1021	-101.25	-37.5	22.5	-56.25	-86.25	-105	-93.75	-63.75
1022	-127.5	-48.75	18.75	-56.25	-82.5	-105	-93.75	-63.75
1023	-112.5	-45	15	-56.25	-86.25	-108.75	-93.75	-63.75
1024	-101.25	-48.75	7.5	-71.25	-93.75	-116.25	-105	-75
1025	-75	-33.75	11.25	-71.25	-93.75	-116.25	-105	-71.25
1026	-56.25	-26.25	15	-67.5	-90	-112.5	-97.5	-67.5
1027	-90	-60	7.5	-75	-97.5	-120	-108.75	-75
1028	-97.5	-78.75	-7.5	-97.5	-120	-135	-127.5	-97.5
1029	-93.75	-67.5	0	-97.5	-116.25	-135	-123.75	-93.75
1030	-101.25	-56.25	7.5	-82.5	-105	-123.75	-112.5	-82.5
1031	-97.5	-33.75	15	-71.25	-93.75	-112.5	-101.25	-75
1032	-101.25	-22.5	22.5	-67.5	-90	-108.75	-97.5	-71.25
1033	-90	-18.75	22.5	-63.75	-86.25	-108.75	-101.25	-71.25
1034	-97.5	-37.5	18.75	-63.75	-90	-112.5	-101.25	-71.25
1035	-135	-75	7.5	-71.25	-97.5	-123.75	-112.5	-82.5
1036	-135	-75	7.5	-78.75	-101.25	-127.5	-116.25	-86.25
1037	-120	-67.5	7.5	-82.5	-105	-127.5	-120	-86.25
1038	-131.25	-78.75	3.75	-82.5	-105	-131.25	-120	-86.25
1039	-131.25	-90	-3.75	-86.25	-112.5	-135	-123.75	-93.75
1040	-138.75	-97.5	-11.25	-97.5	-120	-142.5	-131.25	-101.25
1041	-146.25	-97.5	-7.5	-101.25	-116.25	-138.75	-127.5	-101.25
1042	-127.5	-78.75	0	-86.25	-105	-127.5	-116.25	-90
1043	-120	-52.5	11.25	-75	-93.75	-112.5	-105	-78.75
1044	-82.5	-22.5	18.75	-63.75	-82.5	-105	-93.75	-67.5
1045	-63.75	-11.25	18.75	-60	-78.75	-101.25	-90	-63.75
1046	-75	-18.75	22.5	-52.5	-75	-97.5	-86.25	-60
1047	-90	-45	11.25	-60	-82.5	-105	-93.75	-67.5
1048	-116.25	-78.75	3.75	-67.5	-90	-112.5	-97.5	-71.25
1049	-112.5	-75	3.75	-67.5	-90	-112.5	-101.25	-71.25
1050	-101.25	-45	15	-56.25	-78.75	-101.25	-90	-63.75
1051	-116.25	-56.25	11.25	-63.75	-82.5	-108.75	-93.75	-67.5
1052	-123.75	-71.25	3.75	-75	-90	-112.5	-101.25	-75
1053	-97.5	-60	7.5	-71.25	-86.25	-108.75	-97.5	-71.25
1054	-86.25	-60	7.5	-71.25	-90	-108.75	-97.5	-71.25
1055	-127.5	-71.25	-3.75	-78.75	-97.5	-120	-105	-82.5
1056	-150	-78.75	-3.75	-75	-97.5	-120	-108.75	-82.5
1057	-120	-60	-3.75	-71.25	-93.75	-116.25	-105	-78.75
1058	-82.5	-26.25	7.5	-56.25	-78.75	-101.25	-90	-63.75
1059	-71.25	-18.75	18.75	-45	-67.5	-90	-78.75	-52.5
1060	-78.75	-30	11.25	-56.25	-75	-101.25	-90	-67.5
1061	-82.5	-33.75	0	-63.75	-82.5	-108.75	-97.5	-71.25
1062	-90	-41.25	-3.75	-71.25	-90	-112.5	-101.25	-75
1063	-101.25	-63.75	0	-67.5	-86.25	-105	-93.75	-67.5
1064	-116.25	-71.25	7.5	-63.75	-78.75	-101.25	-90	-63.75
1065	-112.5	-45	11.25	-67.5	-82.5	-101.25	-90	-60
1066	-86.25	-30	3.75	-67.5	-82.5	-108.75	-97.5	-63.75
1067	-93.75	-48.75	0	-67.5	-86.25	-108.75	-97.5	-67.5
1068	-112.5	-63.75	-3.75	-71.25	-86.25	-108.75	-97.5	-71.25
1069	-105	-48.75	-3.75	-67.5	-90	-105	-93.75	-71.25
1070	-63.75	-15	3.75	-52.5	-78.75	-93.75	-82.5	-60
1071	-52.5	-7.5	3.75	-48.75	-71.25	-93.75	-82.5	-60
1072	-82.5	-26.25	3.75	-56.25	-75	-93.75	-86.25	-60
1073	-101.25	-33.75	3.75	-56.25	-75	-93.75	-82.5	-60
1074	-108.75	-33.75	0	-60	-75	-93.75	-82.5	-60
1075	-105	-41.25	0	-60	-75	-93.75	-82.5	-60
1076	-101.25	-52.5	-3.75	-67.5	-86.25	-101.25	-90	-67.5
1077	-90	-48.75	-7.5	-75	-90	-105	-90	-67.5
1078	-93.75	-48.75	-7.5	-71.25	-86.25	-101.25	-90	-67.5
1079	-120	-56.25	-3.75	-67.5	-82.5	-101.25	-90	-67.5
1080	-127.5	-52.5	0	-67.5	-82.5	-97.5	-86.25	-63.75
1081	-90	-18.75	3.75	-60	-75	-93.75	-86.25	-60
1082	-60	3.75	15	-48.75	-63.75	-86.25	-71.25	-48.75
1083	-67.5	-22.5	3.75	-56.25	-71.25	-93.75	-78.75	-56.25
1084	-75	-41.25	-7.5	-67.5	-82.5	-105	-90	-63.75
1085	-82.5	-37.5	-11.25	-71.25	-86.25	-105	-93.75	-71.25
1086	-101.25	-48.75	-7.5	-71.25	-86.25	-101.25	-90	-67.5
1087	-105	-63.75	-15	-82.5	-97.5	-112.5	-97.5	-75
1088	-97.5	-60	-18.75	-90	-101.25	-116.25	-105	-78.75
1089	-105	-63.75	-18.75	-90	-105	-112.5	-101.25	-75
1090	-97.5	-56.25	-11.25	-86.25	-97.5	-108.75	-93.75	-67.5
1091	-86.25	-33.75	-7.5	-78.75	-90	-105	-90	-63.75
1092	-97.5	-33.75	-3.75	-82.5	-93.75	-108.75	-93.75	-67.5
1093	-105	-41.25	-3.75	-78.75	-97.5	-112.5	-97.5	-67.5
1094	-112.5	-45	-7.5	-71.25	-93.75	-108.75	-97.5	-67.5
1095	-108.75	-63.75	-18.75	-82.5	-101.25	-116.25	-105	-75
1096	-90	-63.75	-22.5	-90	-105	-120	-105	-75
1097	-75	-30	-7.5	-75	-90	-105	-90	-60
1098	-78.75	-33.75	-7.5	-71.25	-90	-101.25	-86.25	-56.25
1099	-82.5	-60	-15	-86.25	-101.25	-108.75	-93.75	-67.5
1100	-82.5	-52.5	-18.75	-90	-101.25	-108.75	-93.75	-63.75
1101	-97.5	-48.75	-18.75	-93.75	-105	-108.75	-93.75	-63.75
1102	-112.5	-60	-18.75	-97.5	-112.5	-112.5	-97.5	-67.5
1103	-108.75	-60	-18.75	-93.75	-108.75	-112.5	-101.25	-67.5
1104	-112.5	-56.25	-15	-90	-101.25	-108.75	-97.5	-67.5
1105	-116.25	-48.75	-15	-86.25	-101.25	-108.75	-93.75	-67.5
1106	-105	-37.5	-18.75	-82.5	-97.5	-108.75	-93.75	-63.75
1107	-90	-33.75	-15	-82.5	-97.5	-105	-90	-60
1108	-97.5	-52.5	-15	-90	-101.25	-108.75	-93.75	-60
1109	-105	-71.25	-26.25	-101.25	-112.5	-120	-105	-71.25
1110	-101.25	-63.75	-26.25	-101.25	-112.5	-120	-105	-71.25
1111	-108.75	-71.25	-30	-105	-116.25	-123.75	-108.75	-75
1112	-108.75	-78.75	-30	-112.5	-120	-127.5	-112.5	-78.75
1113	-97.5	-60	-22.5	-105	-116.25	-123.75	-108.75	-78.75
1114	-112.5	-67.5	-18.75	-108.75	-120	-127.5	-112.5	-78.75
1115	-146.25	-97.5	-26.25	-116.25	-127.5	-135	-120	-86.25
1116	-150	-105	-33.75	-123.75	-138.75	-142.5	-127.5	-93.75
1117	-131.25	-93.75	-37.5	-123.75	-138.75	-146.25	-131.25	-93.75
1118	-112.5	-71.25	-26.25	-105	-116.25	-127.5	-116.25	-78.75
1119	-101.25	-41.25	-11.25	-90	-105	-112.5	-101.25	-60
1120	-86.25	-26.25	-3.75	-82.5	-97.5	-112.5	-97.5	-56.25
1121	-78.75	-30	-15	-97.5	-112.5	-127.5	-112.5	-71.25
1122	-93.75	-41.25	-15	-101.25	-112.5	-123.75	-108.75	-67.5
1123	-116.25	-56.25	-18.75	-105	-116.25	-123.75	-108.75	-71.25
1124	-105	-56.25	-18.75	-108.75	-120	-123.75	-108.75	-75
1125	-108.75	-71.25	-30	-120	-127.5	-127.5	-116.25	-86.25
1126	-116.25	-82.5	-33.75	-123.75	-135	-135	-120	-90
1127	-101.25	-63.75	-26.25	-120	-127.5	-131.25	-116.25	-82.5
1128	-101.25	-52.5	-18.75	-108.75	-120	-123.75	-108.75	-78.75
1129	-116.25	-63.75	-15	-101.25	-116.25	-120	-105	-71.25
1130	-123.75	-71.25	-15	-97.5	-112.5	-116.25	-105	-67.5
1131	-127.5	-75	-33.75	-116.25	-127.5	-138.75	-123.75	-86.25
1132	-123.75	-78.75	-41.25	-127.5	-138.75	-146.25	-131.25	-97.5
1133	-123.75	-78.75	-33.75	-120	-131.25	-138.75	-120	-86.25
1134	-116.25	-75	-30	-116.25	-127.5	-135	-112.5	-78.75
1135	-97.5	-71.25	-37.5	-123.75	-135	-146.25	-123.75	-90
1136	-101.25	-75	-37.5	-131.25	-138.75	-146.25	-127.5	-93.75
1137	-101.25	-63.75	-26.25	-123.75	-131.25	-131.25	-116.25	-82.5
1138	-101.25	-60	-22.5	-120	-123.75	-127.5	-112.5	-78.75
1139	-116.25	-75	-30	-127.5	-135	-135	-120	-86.25
1140	-123.75	-75	-22.5	-120	-131.25	-135	-116.25	-82.5
1141	-127.5	-71.25	-18.75	-112.5	-123.75	-127.5	-112.5	-75
1142	-123.75	-63.75	-11.25	-105	-116.25	-123.75	-108.75	-71.25
1143	-116.25	-63.75	-18.75	-108.75	-120	-131.25	-112.5	-75
1144	-90	-60	-22.5	-116.25	-123.75	-135	-120	-82.5
1145	-86.25	-63.75	-26.25	-120	-131.25	-135	-123.75	-86.25
1146	-116.25	-86.25	-33.75	-123.75	-138.75	-142.5	-127.5	-90
1147	-153.75	-105	-33.75	-123.75	-138.75	-142.5	-127.5	-90
1148	-135	-97.5	-30	-127.5	-138.75	-138.75	-127.5	-90
1149	-112.5	-82.5	-26.25	-127.5	-138.75	-135	-123.75	-86.25
1150	-101.25	-60	-18.75	-116.25	-127.5	-127.5	-112.5	-78.75
1151	-97.5	-48.75	-18.75	-116.25	-127.5	-127.5	-112.5	-78.75
1152	-120	-60	-18.75	-116.25	-131.25	-131.25	-116.25	-78.75
1153	-105	-45	-11.25	-105	-120	-120	-108.75	-75
1154	-78.75	-41.25	-11.25	-101.25	-120	-120	-108.75	-71.25
1155	-108.75	-82.5	-30	-120	-135	-138.75	-123.75	-90
1156	-142.5	-116.25	-45	-135	-150	-153.75	-135	-101.25
1157	-142.5	-108.75	-45	-135	-150	-153.75	-135	-101.25
1158	-131.25	-93.75	-45	-135	-150	-153.75	-138.75	-101.25
1159	-116.25	-82.5	-33.75	-127.5	-138.75	-138.75	-123.75	-90
1160	-116.25	-82.5	-26.25	-123.75	-135	-135	-120	-86.25
1161	-142.5	-105	-37.5	-135	-146.25	-146.25	-127.5	-93.75
1162	-146.25	-108.75	-33.75	-135	-146.25	-146.25	-131.25	-97.5
1163	-138.75	-93.75	-26.25	-127.5	-138.75	-142.5	-123.75	-93.75
1164	-120	-67.5	-18.75	-116.25	-127.5	-131.25	-116.25	-82.5
1165	-112.5	-52.5	-15	-112.5	-123.75	-131.25	-116.25	-82.5
1166	-120	-60	-18.75	-112.5	-127.5	-135	-120	-86.25
1167	-123.75	-82.5	-30	-120	-138.75	-142.5	-127.5	-93.75
1168	-131.25	-105	-41.25	-131.25	-146.25	-150	-135	-101.25
1169	-127.5	-93.75	-33.75	-127.5	-138.75	-142.5	-131.25	-93.75
1170	-101.25	-60	-18.75	-116.25	-127.5	-131.25	-116.25	-78.75
1171	-86.25	-41.25	-15	-112.5	-123.75	-123.75	-112.5	-75
1172	-116.25	-71.25	-26.25	-123.75	-135	-135	-120	-86.25
1173	-146.25	-97.5	-30	-131.25	-138.75	-138.75	-127.5	-93.75
1174	-131.25	-78.75	-26.25	-127.5	-135	-135	-120	-90
1175	-105	-56.25	-22.5	-123.75	-135	-135	-120	-90
1176	-105	-60	-22.5	-127.5	-138.75	-138.75	-127.5	-93.75
1177	-112.5	-48.75	-7.5	-112.5	-123.75	-127.5	-116.25	-82.5
1178	-112.5	-33.75	0	-93.75	-108.75	-112.5	-101.25	-67.5
1179	-97.5	-33.75	-3.75	-97.5	-112.5	-116.25	-101.25	-71.25
1180	-86.25	-33.75	-3.75	-97.5	-112.5	-116.25	-101.25	-67.5
1181	-105	-45	0	-97.5	-112.5	-116.25	-101.25	-67.5
1182	-135	-63.75	-7.5	-105	-120	-127.5	-112.5	-78.75
1183	-138.75	-60	0	-105	-120	-123.75	-108.75	-78.75
1184	-120	-33.75	18.75	-93.75	-108.75	-112.5	-97.5	-67.5
1185	-120	-26.25	30	-86.25	-101.25	-105	-90	-63.75
1186	-127.5	-33.75	30	-86.25	-101.25	-105	-93.75	-63.75
1187	-123.75	-37.5	30	-82.5	-101.25	-108.75	-93.75	-67.5
1188	-123.75	-41.25	30	-78.75	-97.5	-108.75	-93.75	-67.5
1189	-93.75	-18.75	37.5	-63.75	-86.25	-101.25	-86.25	-56.25
1190	-63.75	-3.75	37.5	-60	-86.25	-101.25	-86.25	-52.5
1191	-63.75	-11.25	33.75	-60	-90	-105	-86.25	-60
1192	-71.25	-3.75	41.25	-56.25	-82.5	-93.75	-82.5	-56.25
1193	-71.25	11.25	48.75	-52.5	-75	-86.25	-75	-52.5
1194	-75	7.5	45	-52.5	-78.75	-86.25	-75	-52.5
1195	-75	0	41.25	-52.5	-78.75	-90	-78.75	-52.5
1196	-93.75	-18.75	41.25	-56.25	-82.5	-90	-78.75	-56.25
1197	-127.5	-37.5	26.25	-75	-93.75	-101.25	-90	-63.75
1198	-123.75	-18.75	22.5	-78.75	-93.75	-93.75	-82.5	-52.5
1199	-86.25	22.5	30	-60	-75	-78.75	-63.75	-37.5
1200	-52.5	52.5	33.75	-45	-56.25	-63.75	-45	-18.75
1201	-37.5	52.5	11.25	-48.75	-60	-67.5	-48.75	-22.5
1202	-52.5	26.25	-7.5	-63.75	-71.25	-78.75	-60	-30
1203	-75	-15	-33.75	-82.5	-93.75	-97.5	-78.75	-45
1204	-82.5	-41.25	-45	-93.75	-101.25	-105	-82.5	-48.75
1205	-67.5	-26.25	-37.5	-86.25	-93.75	-97.5	-75	-41.25
1206	-56.25	-7.5	-52.5	-101.25	-101.25	-105	-82.5	-48.75
1207	-52.5	-11.25	-67.5	-116.25	-116.25	-116.25	-93.75	-56.25
1208	-71.25	-37.5	-71.25	-127.5	-127.5	-123.75	-97.5	-60
1209	-90	-56.25	-78.75	-142.5	-138.75	-131.25	-108.75	-71.25
1210	-86.25	-41.25	-67.5	-138.75	-135	-127.5	-105	-67.5
1211	-75	-15	-48.75	-123.75	-120	-116.25	-93.75	-56.25
1212	-97.5	-22.5	-48.75	-123.75	-120	-116.25	-93.75	-60
1213	-112.5	-37.5	-48.75	-123.75	-123.75	-120	-97.5	-63.75
1214	-52.5	-3.75	-37.5	-108.75	-116.25	-116.25	-93.75	-56.25
1215	-33.75	-18.75	-37.5	-116.25	-120	-123.75	-105	-67.5
1216	-45	-41.25	-48.75	-123.75	-127.5	-131.25	-108.75	-75
1217	-41.25	-22.5	-41.25	-116.25	-120	-120	-101.25	-63.75
1218	-41.25	-15	-37.5	-112.5	-116.25	-116.25	-93.75	-56.25
1219	-63.75	-33.75	-37.5	-120	-123.75	-120	-97.5	-63.75
1220	-75	-45	-37.5	-123.75	-127.5	-131.25	-105	-71.25
1221	-82.5	-56.25	-37.5	-131.25	-135	-138.75	-112.5	-78.75
1222	-116.25	-78.75	-41.25	-138.75	-142.5	-146.25	-120	-82.5
1223	-131.25	-78.75	-41.25	-138.75	-142.5	-146.25	-120	-90
1224	-123.75	-63.75	-33.75	-135	-138.75	-146.25	-120	-86.25
1225	-131.25	-67.5	-33.75	-135	-138.75	-142.5	-120	-86.25
1226	-131.25	-78.75	-37.5	-131.25	-138.75	-146.25	-123.75	-90
1227	-131.25	-93.75	-48.75	-142.5	-150	-161.25	-135	-101.25
1228	-131.25	-97.5	-48.75	-150	-157.5	-165	-142.5	-108.75
1229	-135	-86.25	-41.25	-146.25	-153.75	-161.25	-138.75	-101.25
1230	-135	-75	-33.75	-138.75	-146.25	-153.75	-131.25	-93.75
1231	-127.5	-71.25	-37.5	-138.75	-146.25	-153.75	-131.25	-97.5
1232	-116.25	-71.25	-41.25	-146.25	-153.75	-157.5	-135	-101.25
1233	-120	-90	-52.5	-161.25	-168.75	-168.75	-146.25	-116.25
1234	-116.25	-90	-60	-168.75	-176.25	-176.25	-153.75	-123.75
1235	-127.5	-86.25	-60	-168.75	-172.5	-176.25	-153.75	-123.75
1236	-131.25	-86.25	-52.5	-157.5	-165	-168.75	-146.25	-112.5
1237	-116.25	-78.75	-48.75	-150	-157.5	-165	-138.75	-108.75
1238	-120	-90	-48.75	-150	-161.25	-165	-142.5	-108.75
1239	-135	-97.5	-48.75	-150	-161.25	-168.75	-146.25	-108.75
1240	-127.5	-86.25	-52.5	-153.75	-161.25	-168.75	-146.25	-112.5
1241	-123.75	-75	-45	-150	-157.5	-165	-138.75	-105
1242	-131.25	-75	-41.25	-146.25	-153.75	-161.25	-138.75	-105
1243	-120	-75	-41.25	-150	-157.5	-165	-138.75	-105
1244	-112.5	-78.75	-45	-157.5	-165	-168.75	-146.25	-112.5
1245	-138.75	-93.75	-48.75	-161.25	-168.75	-172.5	-150	-116.25
1246	-157.5	-101.25	-52.5	-165	-168.75	-176.25	-153.75	-123.75
1247	-146.25	-90	-48.75	-161.25	-165	-180	-153.75	-120
1248	-138.75	-86.25	-45	-157.5	-161.25	-176.25	-153.75	-116.25
1249	-153.75	-101.25	-48.75	-157.5	-165	-176.25	-153.75	-120
1250	-176.25	-120	-52.5	-157.5	-165	-176.25	-153.75	-123.75
1251	-165	-123.75	-56.25	-161.25	-168.75	-180	-157.5	-127.5
1252	-116.25	-93.75	-45	-146.25	-157.5	-172.5	-150	-123.75
1253	-108.75	-93.75	-18.75	-120	-146.25	-168.75	-150	-127.5
1254	-127.5	-123.75	15	-86.25	-138.75	-180	-172.5	-150
1255	-135	-153.75	56.25	-52.5	-138.75	-202.5	-202.5	-183.75
1256	-131.25	-180	101.25	-15	-138.75	-228.75	-236.25	-217.5
1257	-108.75	-180	146.25	22.5	-135	-243.75	-258.75	-240
1258	-105	-168.75	187.5	67.5	-116.25	-240	-255	-240
1259	-101.25	-135	225	127.5	-71.25	-210	-236.25	-225
1260	-78.75	-82.5	258.75	206.25	-11.25	-161.25	-195	-191.25
1261	-60	-30	292.5	285	60	-105	-146.25	-142.5
1262	-18.75	15	315	348.75	123.75	-45	-90	-93.75
1263	56.25	67.5	318.75	393.75	180	15	-30	-37.5
1264	146.25	138.75	315	427.5	228.75	75	33.75	26.25
1265	236.25	225	311.25	483.75	311.25	168.75	127.5	116.25
1266	326.25	330	285	528.75	393.75	277.5	240	228.75
1267	405	465	262.5	555	483.75	401.25	371.25	356.25
1268	465	585	210	547.5	558.75	517.5	502.5	476.25
1269	521.25	705	153.75	551.25	648.75	652.5	645	615
1270	566.25	870	153.75	626.25	791.25	828.75	825	780
1271	603.75	1057.5	123.75	656.25	911.25	1005	1020	971.25
1272	641.25	1271.25	3.75	588.75	978.75	1162.5	1215	1181.25
1273	682.5	1447.5	-123.75	495	1027.5	1297.5	1387.5	1361.25
1274	735	1500	-243.75	348.75	1027.5	1383.75	1500	1481.25
1275	761.25	1522.5	-360	187.5	1008.75	1455	1601.25	1571.25
1276	701.25	1507.5	-393.75	135	1053.75	1545	1687.5	1631.25
1277	596.25	1417.5	-367.5	142.5	1117.5	1616.25	1728.75	1635
1278	510	1342.5	-375	93.75	1136.25	1646.25	1736.25	1612.5
1279	420	1267.5	-412.5	-11.25	1095	1608.75	1683.75	1548.75
1280	318.75	1125	-446.25	-150	960	1447.5	1515	1387.5
1281	195	945	-412.5	-236.25	795	1215	1275	1170
1282	52.5	768.75	-363.75	-311.25	596.25	948.75	1008.75	941.25
1283	-75	585	-386.25	-461.25	311.25	618.75	712.5	708.75
1284	-161.25	427.5	-412.5	-618.75	33.75	311.25	435	491.25
1285	-232.5	318.75	-397.5	-697.5	-142.5	101.25	236.25	322.5
1286	-292.5	202.5	-367.5	-686.25	-210	-11.25	101.25	183.75
1287	-333.75	60	-375	-667.5	-243.75	-90	-11.25	48.75
1288	-356.25	-22.5	-393.75	-641.25	-251.25	-120	-67.5	-18.75
1289	-322.5	-7.5	-371.25	-570	-206.25	-90	-45	-11.25
1290	-236.25	33.75	-341.25	-498.75	-176.25	-67.5	-22.5	11.25
1291	-202.5	18.75	-322.5	-465	-191.25	-90	-37.5	0
1292	-217.5	-33.75	-307.5	-438.75	-210	-123.75	-63.75	-26.25
1293	-187.5	-30	-270	-382.5	-191.25	-116.25	-63.75	-30
1294	-138.75	18.75	-228.75	-307.5	-142.5	-82.5	-37.5	-7.5
1295	-105	52.5	-195	-240	-93.75	-52.5	-15	15
1296	-101.25	48.75	-157.5	-176.25	-52.5	-26.25	3.75	22.5
1297	-101.25	48.75	-112.5	-116.25	-15	0	18.75	33.75
1298	-78.75	56.25	-78.75	-82.5	3.75	3.75	22.5	33.75
1299	-63.75	52.5	-60	-71.25	3.75	-3.75	11.25	22.5
1300	-60	41.25	-52.5	-67.5	0	-15	-3.75	7.5
1301	-63.75	22.5	-48.75	-63.75	-11.25	-26.25	-15	-3.75
1302	-86.25	-7.5	-48.75	-67.5	-22.5	-37.5	-26.25	-15
1303	-105	-22.5	-41.25	-75	-33.75	-48.75	-37.5	-26.25
1304	-105	-22.5	-33.75	-75	-33.75	-52.5	-41.25	-33.75
1305	-82.5	-15	-30	-78.75	-41.25	-60	-48.75	-41.25
1306	-67.5	-7.5	-26.25	-75	-45	-67.5	-56.25	-41.25
1307	-82.5	-7.5	-18.75	-67.5	-41.25	-63.75	-52.5	-37.5
1308	-112.5	-22.5	-18.75	-67.5	-45	-71.25	-60	-45
1309	-93.75	-11.25	-18.75	-63.75	-48.75	-71.25	-63.75	-45
1310	-48.75	11.25	-15	-56.25	-45	-71.25	-63.75	-45
1311	-56.25	-7.5	-26.25	-67.5	-56.25	-86.25	-75	-56.25
1312	-86.25	-37.5	-26.25	-71.25	-63.75	-93.75	-82.5	-63.75
1313	-90	-37.5	-18.75	-67.5	-63.75	-90	-75	-56.25
1314	-86.25	-26.25	-15	-60	-56.25	-82.5	-71.25	-52.5
1315	-93.75	-37.5	-22.5	-67.5	-63.75	-93.75	-82.5	-60
1316	-108.75	-71.25	-30	-75	-71.25	-101.25	-90	-67.5
1317	-105	-82.5	-30	-82.5	-78.75	-105	-90	-71.25
1318	-82.5	-60	-26.25	-78.75	-75	-97.5	-86.25	-71.25
1319	-86.25	-52.5	-22.5	-75	-71.25	-93.75	-82.5	-67.5
1320	-71.25	-33.75	-18.75	-71.25	-67.5	-90	-78.75	-67.5
1321	-37.5	7.5	0	-52.5	-52.5	-75	-63.75	-48.75
1322	-7.5	30	11.25	-33.75	-37.5	-63.75	-52.5	-37.5
1323	-22.5	11.25	3.75	-37.5	-41.25	-71.25	-60	-45
1324	-48.75	-15	-15	-52.5	-56.25	-82.5	-71.25	-60
1325	-60	-30	-18.75	-56.25	-60	-86.25	-75	-60
1326	-71.25	-45	-26.25	-60	-63.75	-90	-75	-60
1327	-63.75	-37.5	-30	-63.75	-67.5	-93.75	-78.75	-63.75
1328	-52.5	-22.5	-33.75	-71.25	-71.25	-93.75	-82.5	-67.5
1329	-56.25	-15	-26.25	-63.75	-63.75	-86.25	-75	-60
1330	-71.25	-18.75	-11.25	-48.75	-52.5	-75	-63.75	-48.75
1331	-67.5	-15	-11.25	-48.75	-48.75	-75	-63.75	-48.75
1332	-56.25	-3.75	-11.25	-45	-45	-71.25	-60	-45
1333	-45	0	-7.5	-33.75	-37.5	-63.75	-48.75	-37.5
1334	-30	7.5	-3.75	-26.25	-30	-60	-48.75	-30
1335	-26.25	11.25	-11.25	-26.25	-30	-63.75	-48.75	-30
1336	-30	3.75	-18.75	-33.75	-37.5	-63.75	-48.75	-33.75
1337	-26.25	3.75	-22.5	-33.75	-37.5	-67.5	-52.5	-37.5
1338	-11.25	26.25	-18.75	-26.25	-33.75	-63.75	-48.75	-30
1339	18.75	52.5	-7.5	-15	-18.75	-48.75	-33.75	-15
1340	18.75	48.75	-7.5	-18.75	-18.75	-48.75	-33.75	-15
1341	-26.25	0	-26.25	-41.25	-37.5	-67.5	-52.5	-33.75
1342	-71.25	-45	-30	-41.25	-41.25	-71.25	-52.5	-41.25
1343	-56.25	-26.25	-26.25	-30	-37.5	-63.75	-48.75	-33.75
1344	-37.5	-3.75	-18.75	-22.5	-26.25	-52.5	-37.5	-26.25
1345	-45	7.5	-7.5	-11.25	-18.75	-45	-33.75	-18.75
1346	-33.75	22.5	-11.25	-7.5	-15	-45	-30	-15
1347	-45	-3.75	-22.5	-15	-22.5	-52.5	-37.5	-26.25
1348	-37.5	-11.25	-26.25	-18.75	-26.25	-52.5	-37.5	-26.25
1349	-15	3.75	-26.25	-18.75	-22.5	-48.75	-33.75	-22.5
1350	3.75	15	-26.25	-15	-22.5	-48.75	-33.75	-22.5
1351	18.75	33.75	-18.75	-7.5	-15	-41.25	-26.25	-15
1352	15	41.25	-11.25	0	0	-33.75	-18.75	-7.5
1353	-3.75	26.25	-15	-3.75	-7.5	-37.5	-26.25	-7.5
1354	-11.25	15	-22.5	-15	-18.75	-45	-33.75	-15
1355	-3.75	18.75	-22.5	-11.25	-15	-41.25	-26.25	-18.75
1356	-15	15	-22.5	-7.5	-11.25	-33.75	-22.5	-15
1357	-18.75	22.5	-26.25	0	-7.5	-30	-18.75	-11.25
1358	18.75	60	-11.25	22.5	15	-11.25	3.75	11.25
1359	45	71.25	-15	18.75	11.25	-11.25	3.75	7.5
1360	26.25	41.25	-26.25	7.5	3.75	-22.5	-7.5	0
1361	7.5	18.75	-37.5	0	-3.75	-26.25	-11.25	0
1362	18.75	26.25	-30	7.5	7.5	-18.75	-3.75	7.5
1363	26.25	26.25	-37.5	3.75	0	-22.5	-7.5	3.75
1364	22.5	18.75	-45	-3.75	-7.5	-26.25	-7.5	0
1365	52.5	48.75	-33.75	11.25	7.5	-11.25	7.5	11.25
1366	78.75	86.25	-18.75	22.5	22.5	3.75	18.75	26.25
1367	60	82.5	-22.5	26.25	22.5	3.75	22.5	26.25
1368	48.75	63.75	-30	22.5	18.75	0	15	22.5
1369	63.75	75	-30	26.25	22.5	3.75	22.5	26.25
1370	56.25	78.75	-22.5	41.25	33.75	11.25	30	37.5
1371	48.75	63.75	-33.75	33.75	30	3.75	22.5	30
1372	75	63.75	-48.75	22.5	18.75	-3.75	15	22.5
1373	78.75	75	-41.25	30	26.25	11.25	26.25	37.5
1374	75	97.5	-30	45	41.25	22.5	41.25	52.5
1375	97.5	105	-30	41.25	41.25	22.5	41.25	48.75
1376	101.25	93.75	-45	26.25	26.25	7.5	30	37.5
1377	97.5	86.25	-48.75	22.5	22.5	3.75	26.25	33.75
1378	86.25	78.75	-48.75	26.25	22.5	7.5	26.25	37.5
1379	75	78.75	-48.75	26.25	22.5	7.5	30	41.25
1380	86.25	97.5	-45	33.75	30	15	37.5	48.75
1381	93.75	116.25	-30	52.5	45	30	52.5	63.75
1382	97.5	123.75	-33.75	52.5	45	26.25	48.75	63.75
1383	108.75	116.25	-41.25	48.75	41.25	18.75	45	63.75
1384	112.5	105	-48.75	41.25	33.75	15	41.25	60
1385	135	116.25	-48.75	41.25	33.75	18.75	48.75	63.75
1386	150	123.75	-52.5	37.5	33.75	18.75	48.75	67.5
1387	120	105	-52.5	37.5	30	18.75	45	67.5
1388	112.5	105	-52.5	37.5	30	18.75	52.5	67.5
1389	138.75	116.25	-52.5	33.75	30	18.75	52.5	71.25
1390	146.25	131.25	-48.75	33.75	26.25	18.75	48.75	71.25
1391	146.25	150	-45	41.25	33.75	22.5	56.25	75
1392	161.25	157.5	-45	41.25	30	18.75	56.25	75
1393	161.25	157.5	-48.75	41.25	26.25	18.75	56.25	78.75
1394	146.25	135	-52.5	41.25	30	18.75	52.5	78.75
1395	146.25	120	-63.75	37.5	26.25	11.25	48.75	75
1396	150	123.75	-60	37.5	26.25	15	56.25	78.75
1397	146.25	131.25	-52.5	41.25	30	18.75	63.75	90
1398	135	127.5	-56.25	33.75	22.5	15	56.25	82.5
1399	105	90	-67.5	18.75	3.75	-7.5	33.75	67.5
1400	105	86.25	-67.5	15	0	-11.25	33.75	67.5
1401	131.25	120	-60	18.75	3.75	-3.75	41.25	71.25
1402	146.25	138.75	-56.25	22.5	7.5	3.75	45	75
1403	150	142.5	-48.75	26.25	11.25	11.25	52.5	78.75
1404	157.5	146.25	-48.75	26.25	7.5	7.5	52.5	78.75
1405	153.75	142.5	-48.75	26.25	7.5	3.75	48.75	78.75
1406	153.75	146.25	-41.25	37.5	15	7.5	52.5	82.5
1407	157.5	157.5	-37.5	41.25	15	7.5	52.5	86.25
1408	161.25	153.75	-37.5	33.75	11.25	0	45	82.5
1409	161.25	135	-45	26.25	3.75	-11.25	33.75	71.25
1410	150	123.75	-48.75	22.5	-7.5	-18.75	26.25	63.75
1411	112.5	108.75	-45	15	-11.25	-22.5	22.5	56.25
1412	86.25	93.75	-45	11.25	-18.75	-30	15	48.75
1413	101.25	105	-37.5	11.25	-18.75	-26.25	18.75	52.5
1414	116.25	120	-33.75	18.75	-15	-26.25	18.75	52.5
1415	123.75	135	-26.25	22.5	-11.25	-26.25	18.75	48.75
1416	120	138.75	-15	30	-3.75	-18.75	22.5	56.25
1417	97.5	112.5	-7.5	33.75	0	-22.5	22.5	56.25
1418	90	97.5	0	41.25	-3.75	-26.25	15	45
1419	97.5	120	-7.5	33.75	-11.25	-37.5	3.75	33.75
1420	86.25	120	-7.5	26.25	-18.75	-45	-3.75	26.25
1421	75	105	0	26.25	-15	-45	-3.75	26.25
1422	63.75	97.5	0	22.5	-22.5	-48.75	-11.25	18.75
1423	41.25	67.5	-3.75	15	-33.75	-60	-18.75	7.5
1424	18.75	30	-15	-3.75	-48.75	-78.75	-41.25	-11.25
1425	3.75	11.25	-18.75	-18.75	-63.75	-90	-56.25	-26.25
1426	-22.5	0	-15	-18.75	-63.75	-93.75	-60	-33.75
1427	-15	26.25	0	-3.75	-52.5	-82.5	-48.75	-22.5
1428	26.25	67.5	15	7.5	-37.5	-71.25	-37.5	-11.25
1429	37.5	71.25	18.75	11.25	-33.75	-67.5	-33.75	-7.5
1430	22.5	71.25	22.5	15	-33.75	-67.5	-37.5	-11.25
1431	15	67.5	22.5	11.25	-37.5	-75	-45	-18.75
1432	33.75	67.5	18.75	3.75	-41.25	-78.75	-48.75	-26.25
1433	33.75	60	11.25	-7.5	-48.75	-86.25	-56.25	-30
1434	-22.5	15	3.75	-18.75	-56.25	-93.75	-63.75	-37.5
1435	-52.5	-15	0	-26.25	-63.75	-101.25	-71.25	-45
1436	-41.25	-11.25	-3.75	-37.5	-75	-108.75	-82.5	-56.25
1437	-45	-3.75	3.75	-41.25	-78.75	-108.75	-82.5	-60
1438	-71.25	-7.5	7.5	-41.25	-75	-108.75	-82.5	-60
1439	-86.25	-7.5	15	-37.5	-71.25	-108.75	-82.5	-60
1440	-60	11.25	22.5	-33.75	-67.5	-105	-78.75	-60
1441	-67.5	-3.75	18.75	-37.5	-75	-108.75	-86.25	-63.75
1442	-90	-22.5	15	-37.5	-75	-116.25	-90	-67.5
1443	-75	-15	11.25	-41.25	-82.5	-120	-93.75	-71.25
1444	-56.25	-11.25	7.5	-48.75	-86.25	-120	-93.75	-71.25
1445	-63.75	-22.5	0	-56.25	-90	-123.75	-97.5	-75
1446	-67.5	-22.5	3.75	-56.25	-90	-120	-97.5	-71.25
1447	-75	-30	0	-67.5	-101.25	-131.25	-105	-78.75
1448	-90	-45	-3.75	-75	-108.75	-138.75	-108.75	-86.25
1449	-75	-22.5	0	-71.25	-101.25	-131.25	-101.25	-82.5
1450	-86.25	-22.5	3.75	-71.25	-101.25	-131.25	-105	-82.5
1451	-105	-30	7.5	-75	-101.25	-131.25	-105	-86.25
1452	-105	-26.25	7.5	-75	-105	-135	-108.75	-93.75
1453	-112.5	-22.5	11.25	-67.5	-97.5	-127.5	-105	-86.25
1454	-116.25	-30	15	-63.75	-97.5	-131.25	-105	-82.5
1455	-116.25	-56.25	0	-78.75	-108.75	-146.25	-120	-93.75
1456	-123.75	-67.5	-7.5	-93.75	-116.25	-150	-127.5	-101.25
1457	-120	-52.5	-7.5	-93.75	-120	-150	-123.75	-97.5
1458	-116.25	-45	-3.75	-90	-112.5	-146.25	-116.25	-93.75
1459	-120	-48.75	-7.5	-90	-116.25	-150	-123.75	-101.25
1460	-135	-60	-15	-105	-127.5	-157.5	-135	-112.5
1461	-146.25	-86.25	-26.25	-120	-138.75	-168.75	-146.25	-123.75
1462	-146.25	-93.75	-30	-123.75	-142.5	-172.5	-150	-123.75
1463	-138.75	-71.25	-15	-112.5	-135	-165	-142.5	-112.5
1464	-135	-48.75	-7.5	-101.25	-127.5	-161.25	-135	-105
1465	-108.75	-30	-7.5	-97.5	-123.75	-157.5	-131.25	-105
1466	-116.25	-37.5	-11.25	-97.5	-127.5	-157.5	-131.25	-105
1467	-123.75	-48.75	-15	-97.5	-127.5	-153.75	-127.5	-105
1468	-112.5	-48.75	-18.75	-101.25	-123.75	-153.75	-127.5	-105
1469	-112.5	-41.25	-15	-101.25	-123.75	-150	-127.5	-105
1470	-138.75	-56.25	-11.25	-97.5	-120	-150	-127.5	-101.25
1471	-157.5	-67.5	-11.25	-97.5	-120	-150	-123.75	-101.25
1472	-135	-52.5	-11.25	-105	-123.75	-153.75	-127.5	-101.25
1473	-101.25	-37.5	-11.25	-105	-127.5	-153.75	-123.75	-101.25
1474	-93.75	-45	-18.75	-105	-127.5	-153.75	-127.5	-105
1475	-123.75	-71.25	-18.75	-105	-127.5	-150	-127.5	-105
1476	-138.75	-78.75	-15	-105	-123.75	-150	-123.75	-105
1477	-138.75	-60	-7.5	-93.75	-116.25	-146.25	-120	-97.5
1478	-120	-41.25	-3.75	-82.5	-108.75	-135	-112.5	-90
1479	-108.75	-48.75	-7.5	-86.25	-112.5	-142.5	-116.25	-93.75
1480	-138.75	-75	-11.25	-93.75	-116.25	-142.5	-120	-93.75
1481	-146.25	-75	-7.5	-90	-112.5	-138.75	-112.5	-90
1482	-120	-52.5	-7.5	-90	-108.75	-138.75	-112.5	-90
1483	-101.25	-45	-11.25	-90	-108.75	-138.75	-112.5	-90
1484	-97.5	-48.75	-11.25	-90	-112.5	-135	-112.5	-90
1485	-116.25	-52.5	-7.5	-93.75	-112.5	-135	-116.25	-93.75
1486	-123.75	-60	-18.75	-108.75	-123.75	-150	-127.5	-105
1487	-120	-56.25	-18.75	-105	-123.75	-150	-127.5	-108.75
1488	-120	-45	-3.75	-90	-108.75	-138.75	-116.25	-97.5
1489	-120	-33.75	0	-78.75	-101.25	-127.5	-108.75	-86.25
1490	-93.75	-7.5	11.25	-63.75	-82.5	-116.25	-93.75	-75
1491	-56.25	11.25	11.25	-60	-82.5	-116.25	-93.75	-75
1492	-67.5	-15	-3.75	-75	-97.5	-131.25	-108.75	-90
1493	-112.5	-52.5	-15	-90	-108.75	-142.5	-120	-101.25
1494	-135	-60	-11.25	-90	-105	-138.75	-120	-97.5
1495	-135	-56.25	-11.25	-86.25	-105	-135	-112.5	-93.75
1496	-135	-60	-11.25	-93.75	-105	-138.75	-116.25	-97.5
1497	-120	-52.5	-11.25	-93.75	-108.75	-138.75	-116.25	-97.5
1498	-120	-48.75	-11.25	-93.75	-105	-131.25	-108.75	-93.75
1499	-127.5	-48.75	-11.25	-93.75	-105	-135	-108.75	-93.75
1500	-120	-37.5	-3.75	-86.25	-97.5	-127.5	-105	-86.25
1501	-108.75	-30	-7.5	-86.25	-97.5	-127.5	-105	-86.25
1502	-101.25	-22.5	-3.75	-78.75	-93.75	-123.75	-105	-82.5
1503	-101.25	-33.75	-11.25	-82.5	-101.25	-135	-112.5	-90
1504	-116.25	-48.75	-18.75	-90	-105	-138.75	-116.25	-97.5
1505	-123.75	-52.5	-22.5	-93.75	-105	-138.75	-116.25	-93.75
1506	-116.25	-52.5	-22.5	-93.75	-105	-138.75	-112.5	-93.75
1507	-120	-48.75	-18.75	-90	-105	-135	-108.75	-90
1508	-112.5	-45	-22.5	-93.75	-105	-135	-112.5	-93.75
1509	-93.75	-30	-18.75	-93.75	-105	-131.25	-108.75	-90
1510	-90	-26.25	-11.25	-93.75	-101.25	-127.5	-105	-86.25
1511	-105	-41.25	-7.5	-90	-97.5	-127.5	-101.25	-86.25
1512	-101.25	-26.25	-7.5	-90	-101.25	-127.5	-105	-86.25
1513	-86.25	0	-18.75	-93.75	-105	-135	-112.5	-93.75
1514	-82.5	-3.75	-18.75	-90	-101.25	-135	-108.75	-93.75
1515	-105	-22.5	-15	-86.25	-97.5	-131.25	-105	-86.25
1516	-108.75	-33.75	-26.25	-93.75	-105	-138.75	-116.25	-93.75
1517	-93.75	-37.5	-30	-101.25	-108.75	-142.5	-120	-93.75
1518	-101.25	-33.75	-22.5	-93.75	-105	-142.5	-116.25	-90
1519	-105	-30	-26.25	-93.75	-108.75	-138.75	-112.5	-90
1520	-101.25	-37.5	-30	-105	-116.25	-138.75	-116.25	-93.75
1521	-105	-41.25	-26.25	-105	-116.25	-135	-108.75	-93.75
1522	-97.5	-26.25	-22.5	-101.25	-108.75	-131.25	-105	-93.75
1523	-97.5	-11.25	-18.75	-97.5	-105	-127.5	-105	-90
1524	-105	-22.5	-18.75	-101.25	-108.75	-138.75	-112.5	-93.75
1525	-101.25	-30	-26.25	-101.25	-116.25	-142.5	-116.25	-97.5
1526	-97.5	-22.5	-22.5	-93.75	-108.75	-138.75	-112.5	-90
1527	-108.75	-37.5	-26.25	-97.5	-112.5	-142.5	-116.25	-93.75
1528	-127.5	-56.25	-33.75	-108.75	-120	-150	-120	-101.25
1529	-135	-56.25	-26.25	-105	-116.25	-138.75	-112.5	-90
1530	-116.25	-52.5	-30	-108.75	-116.25	-142.5	-116.25	-93.75
1531	-97.5	-45	-41.25	-116.25	-123.75	-153.75	-120	-101.25
1532	-101.25	-41.25	-41.25	-120	-123.75	-150	-120	-101.25
1533	-112.5	-52.5	-45	-123.75	-131.25	-153.75	-127.5	-105
1534	-116.25	-52.5	-41.25	-123.75	-127.5	-150	-120	-101.25
1535	-127.5	-45	-33.75	-116.25	-123.75	-146.25	-112.5	-93.75
1536	-120	-33.75	-30	-112.5	-120	-142.5	-108.75	-90
1537	-101.25	-26.25	-26.25	-105	-112.5	-138.75	-108.75	-86.25
1538	-86.25	-22.5	-30	-108.75	-116.25	-146.25	-116.25	-90
1539	-82.5	-30	-33.75	-112.5	-120	-150	-116.25	-90
1540	-101.25	-45	-37.5	-120	-127.5	-157.5	-120	-97.5
1541	-90	-26.25	-33.75	-116.25	-127.5	-153.75	-116.25	-93.75
1542	-90	-26.25	-30	-112.5	-123.75	-150	-116.25	-93.75
1543	-108.75	-48.75	-37.5	-120	-131.25	-157.5	-127.5	-101.25
1544	-108.75	-52.5	-45	-131.25	-138.75	-165	-131.25	-108.75
1545	-112.5	-52.5	-45	-135	-138.75	-165	-131.25	-108.75
1546	-108.75	-52.5	-41.25	-131.25	-138.75	-161.25	-131.25	-108.75
1547	-105	-52.5	-41.25	-135	-142.5	-165	-135	-108.75
1548	-120	-56.25	-45	-135	-142.5	-168.75	-135	-112.5
1549	-116.25	-48.75	-37.5	-127.5	-135	-161.25	-127.5	-101.25
1550	-108.75	-41.25	-33.75	-120	-131.25	-157.5	-123.75	-97.5
1551	-116.25	-52.5	-41.25	-123.75	-138.75	-165	-131.25	-105
1552	-116.25	-60	-41.25	-127.5	-138.75	-168.75	-131.25	-108.75
1553	-123.75	-56.25	-37.5	-123.75	-138.75	-161.25	-127.5	-105
1554	-123.75	-52.5	-45	-131.25	-142.5	-165	-135	-108.75
1555	-123.75	-63.75	-52.5	-138.75	-150	-172.5	-138.75	-112.5
1556	-123.75	-75	-52.5	-146.25	-157.5	-180	-142.5	-120
1557	-116.25	-63.75	-45	-142.5	-153.75	-180	-142.5	-120
1558	-90	-33.75	-41.25	-135	-150	-172.5	-135	-112.5
1559	-90	-30	-41.25	-135	-150	-172.5	-135	-112.5
1560	-97.5	-33.75	-41.25	-135	-146.25	-168.75	-135	-112.5
1561	-97.5	-30	-37.5	-127.5	-142.5	-165	-131.25	-105
1562	-90	-22.5	-33.75	-120	-138.75	-161.25	-123.75	-101.25
1563	-78.75	-26.25	-41.25	-127.5	-146.25	-172.5	-135	-112.5
1564	-101.25	-56.25	-52.5	-142.5	-157.5	-180	-142.5	-120
1565	-135	-82.5	-52.5	-142.5	-157.5	-180	-142.5	-120
1566	-142.5	-90	-56.25	-146.25	-161.25	-183.75	-146.25	-120
1567	-127.5	-75	-52.5	-146.25	-161.25	-183.75	-146.25	-116.25
1568	-112.5	-60	-45	-142.5	-153.75	-176.25	-138.75	-108.75
1569	-120	-67.5	-45	-146.25	-157.5	-180	-138.75	-112.5
1570	-123.75	-71.25	-45	-150	-161.25	-183.75	-142.5	-116.25
1571	-120	-63.75	-41.25	-146.25	-157.5	-180	-138.75	-116.25
1572	-127.5	-60	-41.25	-146.25	-157.5	-180	-138.75	-120
1573	-120	-41.25	-30	-135	-146.25	-172.5	-131.25	-108.75
1574	-116.25	-22.5	-22.5	-120	-135	-165	-123.75	-97.5
1575	-112.5	-30	-30	-123.75	-142.5	-176.25	-135	-105
1576	-112.5	-48.75	-41.25	-138.75	-157.5	-187.5	-146.25	-116.25
1577	-138.75	-71.25	-48.75	-146.25	-165	-187.5	-146.25	-123.75
1578	-161.25	-93.75	-52.5	-153.75	-168.75	-187.5	-146.25	-123.75
1579	-138.75	-86.25	-45	-142.5	-157.5	-180	-138.75	-120
1580	-123.75	-86.25	-41.25	-142.5	-161.25	-176.25	-135	-116.25
1581	-142.5	-93.75	-48.75	-157.5	-172.5	-191.25	-150	-127.5
1582	-150	-86.25	-52.5	-161.25	-172.5	-195	-153.75	-131.25
1583	-127.5	-60	-48.75	-153.75	-165	-187.5	-150	-127.5
1584	-120	-52.5	-45	-146.25	-161.25	-183.75	-142.5	-123.75
1585	-123.75	-60	-41.25	-138.75	-157.5	-180	-138.75	-112.5
1586	-116.25	-48.75	-33.75	-127.5	-150	-172.5	-131.25	-105
1587	-105	-45	-37.5	-131.25	-153.75	-176.25	-135	-108.75
1588	-108.75	-60	-48.75	-146.25	-161.25	-183.75	-142.5	-120
1589	-131.25	-78.75	-52.5	-150	-165	-187.5	-146.25	-123.75
1590	-138.75	-78.75	-45	-146.25	-161.25	-183.75	-142.5	-120
1591	-97.5	-45	-41.25	-142.5	-157.5	-180	-138.75	-112.5
1592	-90	-41.25	-41.25	-146.25	-157.5	-183.75	-138.75	-116.25
1593	-127.5	-75	-48.75	-157.5	-168.75	-191.25	-150	-127.5
1594	-138.75	-86.25	-48.75	-161.25	-172.5	-191.25	-150	-127.5
1595	-135	-67.5	-37.5	-146.25	-161.25	-183.75	-138.75	-120
1596	-123.75	-52.5	-37.5	-142.5	-157.5	-180	-138.75	-116.25
1597	-112.5	-48.75	-41.25	-142.5	-157.5	-183.75	-142.5	-116.25
1598	-105	-41.25	-41.25	-138.75	-153.75	-180	-138.75	-116.25
1599	-116.25	-56.25	-52.5	-146.25	-161.25	-187.5	-146.25	-123.75
1600	-135	-82.5	-52.5	-150	-165	-191.25	-150	-123.75
1601	-138.75	-93.75	-52.5	-153.75	-165	-191.25	-150	-120
1602	-142.5	-97.5	-48.75	-150	-161.25	-191.25	-146.25	-120
1603	-146.25	-90	-52.5	-153.75	-165	-191.25	-150	-123.75
1604	-86.25	-52.5	-48.75	-153.75	-165	-191.25	-146.25	-123.75
1605	-63.75	-41.25	-52.5	-157.5	-165	-191.25	-150	-123.75
1606	-105	-48.75	-48.75	-153.75	-161.25	-187.5	-146.25	-120
1607	-116.25	-41.25	-37.5	-142.5	-153.75	-180	-135	-112.5
1608	-120	-45	-45	-150	-161.25	-187.5	-142.5	-116.25
1609	-120	-48.75	-45	-146.25	-157.5	-183.75	-142.5	-116.25
1610	-120	-56.25	-48.75	-150	-161.25	-191.25	-150	-123.75
1611	-105	-60	-48.75	-146.25	-161.25	-191.25	-150	-123.75
1612	-97.5	-63.75	-52.5	-150	-165	-195	-150	-123.75
1613	-131.25	-78.75	-52.5	-153.75	-165	-195	-153.75	-123.75
1614	-131.25	-67.5	-45	-146.25	-157.5	-187.5	-146.25	-116.25
1615	-112.5	-52.5	-45	-146.25	-157.5	-187.5	-142.5	-112.5
1616	-135	-75	-52.5	-157.5	-165	-191.25	-150	-123.75
1617	-142.5	-78.75	-56.25	-165	-172.5	-198.75	-153.75	-127.5
1618	-120	-56.25	-48.75	-161.25	-168.75	-195	-150	-123.75
1619	-116.25	-48.75	-45	-157.5	-165	-187.5	-146.25	-120
1620	-120	-48.75	-45	-153.75	-161.25	-187.5	-142.5	-120
1621	-120	-45	-45	-153.75	-161.25	-187.5	-146.25	-120
1622	-105	-37.5	-41.25	-142.5	-157.5	-187.5	-146.25	-116.25
1623	-97.5	-48.75	-45	-142.5	-157.5	-187.5	-146.25	-120
1624	-123.75	-78.75	-52.5	-153.75	-168.75	-195	-157.5	-127.5
1625	-157.5	-97.5	-56.25	-161.25	-168.75	-198.75	-157.5	-131.25
1626	-150	-86.25	-52.5	-153.75	-165	-195	-153.75	-127.5
1627	-131.25	-75	-48.75	-150	-161.25	-191.25	-150	-123.75
1628	-146.25	-75	-45	-150	-161.25	-195	-153.75	-123.75
1629	-138.75	-56.25	-37.5	-146.25	-157.5	-191.25	-150	-116.25
1630	-101.25	-26.25	-22.5	-138.75	-150	-180	-138.75	-112.5
1631	-86.25	-11.25	-18.75	-131.25	-142.5	-172.5	-131.25	-108.75
1632	-101.25	-15	-18.75	-123.75	-138.75	-165	-127.5	-108.75
1633	-105	0	-3.75	-112.5	-127.5	-153.75	-116.25	-97.5
1634	-93.75	22.5	7.5	-97.5	-116.25	-142.5	-105	-86.25
1635	-101.25	11.25	11.25	-97.5	-116.25	-146.25	-112.5	-90
1636	-108.75	-11.25	7.5	-105	-123.75	-157.5	-120	-97.5
1637	-93.75	-15	11.25	-105	-123.75	-153.75	-120	-97.5
1638	-75	0	15	-101.25	-120	-150	-116.25	-97.5
1639	-78.75	0	15	-97.5	-116.25	-150	-116.25	-93.75
1640	-82.5	-7.5	15	-97.5	-116.25	-150	-112.5	-93.75
1641	-67.5	-3.75	15	-93.75	-112.5	-146.25	-108.75	-90
1642	-67.5	3.75	26.25	-90	-108.75	-138.75	-105	-90
1643	-78.75	3.75	30	-86.25	-112.5	-142.5	-108.75	-93.75
1644	-78.75	22.5	33.75	-82.5	-105	-138.75	-101.25	-90
1645	-78.75	45	37.5	-75	-97.5	-135	-97.5	-82.5
1646	-93.75	41.25	37.5	-67.5	-93.75	-127.5	-93.75	-75
1647	-86.25	26.25	30	-67.5	-93.75	-131.25	-93.75	-75
1648	-75	18.75	18.75	-82.5	-101.25	-131.25	-93.75	-75
1649	-63.75	41.25	11.25	-82.5	-97.5	-123.75	-82.5	-60
1650	-48.75	52.5	-3.75	-82.5	-97.5	-123.75	-82.5	-63.75
1651	-48.75	30	-30	-97.5	-108.75	-138.75	-97.5	-75
1652	-56.25	7.5	-48.75	-120	-123.75	-150	-105	-82.5
1653	-75	-22.5	-63.75	-135	-138.75	-161.25	-116.25	-93.75
1654	-75	-18.75	-60	-135	-138.75	-157.5	-116.25	-93.75
1655	-48.75	15	-56.25	-127.5	-131.25	-150	-112.5	-86.25
1656	-33.75	26.25	-67.5	-131.25	-131.25	-153.75	-112.5	-90
1657	-56.25	11.25	-71.25	-135	-135	-153.75	-112.5	-90
1658	-60	18.75	-71.25	-131.25	-131.25	-153.75	-108.75	-82.5
1659	-52.5	18.75	-63.75	-127.5	-127.5	-150	-105	-78.75
1660	-60	-7.5	-63.75	-135	-135	-157.5	-112.5	-82.5
1661	-45	3.75	-71.25	-146.25	-146.25	-165	-120	-90
1662	-41.25	7.5	-78.75	-153.75	-153.75	-172.5	-127.5	-97.5
1663	-67.5	-30	-82.5	-165	-161.25	-180	-138.75	-108.75
1664	-67.5	-45	-75	-161.25	-161.25	-180	-138.75	-108.75
1665	-71.25	-45	-67.5	-157.5	-157.5	-172.5	-131.25	-105
1666	-82.5	-37.5	-63.75	-157.5	-153.75	-172.5	-135	-105
1667	-93.75	-26.25	-56.25	-146.25	-146.25	-161.25	-127.5	-97.5
1668	-90	-15	-48.75	-142.5	-138.75	-157.5	-120	-90
1669	-75	0	-48.75	-138.75	-138.75	-153.75	-116.25	-86.25
1670	-90	-15	-48.75	-138.75	-142.5	-161.25	-123.75	-90
1671	-86.25	-30	-60	-150	-153.75	-176.25	-135	-105
1672	-67.5	-22.5	-63.75	-153.75	-161.25	-180	-142.5	-112.5
1673	-86.25	-33.75	-63.75	-157.5	-165	-183.75	-146.25	-116.25
1674	-101.25	-45	-60	-157.5	-161.25	-180	-142.5	-112.5
1675	-116.25	-48.75	-56.25	-157.5	-161.25	-183.75	-142.5	-116.25
1676	-131.25	-71.25	-63.75	-168.75	-172.5	-191.25	-150	-123.75
1677	-116.25	-78.75	-71.25	-180	-183.75	-202.5	-161.25	-135
1678	-86.25	-41.25	-60	-176.25	-180	-195	-157.5	-127.5
1679	-97.5	-33.75	-52.5	-168.75	-172.5	-195	-157.5	-127.5
1680	-127.5	-56.25	-56.25	-176.25	-180	-202.5	-165	-138.75
1681	-127.5	-48.75	-56.25	-172.5	-176.25	-202.5	-165	-135
1682	-108.75	-33.75	-56.25	-165	-172.5	-198.75	-161.25	-131.25
1683	-108.75	-45	-63.75	-168.75	-180	-206.25	-168.75	-138.75
1684	-131.25	-75	-71.25	-176.25	-183.75	-210	-172.5	-142.5
1685	-135	-82.5	-71.25	-180	-187.5	-210	-172.5	-142.5
1686	-120	-67.5	-67.5	-172.5	-180	-206.25	-165	-138.75
1687	-120	-63.75	-60	-165	-172.5	-198.75	-157.5	-127.5
1688	-116.25	-75	-67.5	-176.25	-183.75	-206.25	-168.75	-138.75
1689	-101.25	-75	-75	-187.5	-191.25	-213.75	-176.25	-146.25
1690	-120	-78.75	-71.25	-187.5	-187.5	-210	-172.5	-142.5
1691	-135	-86.25	-71.25	-183.75	-191.25	-210	-168.75	-142.5
1692	-123.75	-82.5	-67.5	-180	-187.5	-210	-168.75	-142.5
1693	-112.5	-67.5	-60	-168.75	-176.25	-202.5	-165	-135
1694	-120	-60	-56.25	-161.25	-168.75	-198.75	-161.25	-131.25
1695	-135	-71.25	-63.75	-168.75	-176.25	-202.5	-168.75	-138.75
1696	-127.5	-75	-75	-176.25	-187.5	-213.75	-176.25	-146.25
1697	-112.5	-67.5	-67.5	-176.25	-183.75	-210	-168.75	-142.5
1698	-112.5	-52.5	-56.25	-165	-172.5	-195	-157.5	-127.5
1699	-123.75	-60	-52.5	-157.5	-168.75	-191.25	-153.75	-127.5
1700	-146.25	-101.25	-71.25	-180	-187.5	-210	-176.25	-146.25
1701	-150	-112.5	-71.25	-183.75	-191.25	-217.5	-183.75	-157.5
1702	-138.75	-86.25	-52.5	-161.25	-180	-210	-176.25	-157.5
1703	-138.75	-78.75	-11.25	-123.75	-161.25	-202.5	-176.25	-157.5
1704	-142.5	-97.5	30	-82.5	-150	-210	-195	-180
1705	-138.75	-123.75	75	-41.25	-142.5	-228.75	-221.25	-213.75
1706	-112.5	-131.25	123.75	3.75	-138.75	-251.25	-251.25	-240
1707	-86.25	-127.5	157.5	41.25	-135	-262.5	-270	-258.75
1708	-82.5	-127.5	183.75	78.75	-116.25	-258.75	-270	-258.75
1709	-90	-105	221.25	146.25	-63.75	-225	-240	-232.5
1710	-71.25	-48.75	262.5	225	7.5	-168.75	-195	-187.5
1711	-11.25	15	285	288.75	63.75	-120	-146.25	-146.25
1712	71.25	78.75	296.25	337.5	123.75	-56.25	-90	-97.5
1713	138.75	142.5	303.75	382.5	180	11.25	-22.5	-37.5
1714	191.25	198.75	303.75	427.5	240	86.25	52.5	30
1715	247.5	262.5	285	472.5	307.5	168.75	142.5	116.25
1716	300	352.5	255	506.25	390	273.75	255	225
1717	363.75	476.25	225	521.25	472.5	386.25	375	345
1718	476.25	630	172.5	528.75	562.5	517.5	517.5	491.25
1719	600	821.25	150	581.25	686.25	678.75	690	652.5
1720	641.25	993.75	142.5	645	817.5	851.25	866.25	817.5
1721	641.25	1151.25	60	618.75	900	1005	1046.25	1005
1722	656.25	1335	-63.75	543.75	963.75	1158.75	1245	1218.75
1723	727.5	1466.25	-176.25	446.25	1001.25	1282.5	1402.5	1380
1724	810	1518.75	-303.75	277.5	982.5	1353.75	1500	1481.25
1725	806.25	1552.5	-386.25	153.75	982.5	1428.75	1593.75	1563.75
1726	701.25	1496.25	-390	138.75	1035	1503.75	1653.75	1593.75
1727	585	1398.75	-375	123.75	1080	1552.5	1680	1575
1728	483.75	1331.25	-393.75	41.25	1072.5	1560	1665	1541.25
1729	360	1218.75	-446.25	-86.25	986.25	1473.75	1571.25	1443.75
1730	255	1061.25	-450	-191.25	847.5	1293.75	1383.75	1275
1731	127.5	870	-405	-258.75	682.5	1050	1132.5	1050
1732	-3.75	682.5	-393.75	-375	442.5	750	847.5	810
1733	-108.75	521.25	-435	-547.5	150	423.75	551.25	577.5
1734	-191.25	382.5	-442.5	-682.5	-90	157.5	307.5	382.5
1735	-255	262.5	-416.25	-727.5	-213.75	0	142.5	228.75
1736	-281.25	165	-390	-697.5	-247.5	-78.75	33.75	101.25
1737	-292.5	75	-390	-667.5	-258.75	-127.5	-45	3.75
1738	-296.25	30	-386.25	-622.5	-247.5	-142.5	-71.25	-33.75
1739	-277.5	26.25	-371.25	-558.75	-217.5	-120	-56.25	-30
1740	-247.5	30	-348.75	-506.25	-210	-116.25	-52.5	-26.25
1741	-206.25	37.5	-318.75	-461.25	-217.5	-135	-63.75	-26.25
1742	-172.5	37.5	-285	-405	-210	-138.75	-63.75	-30
1743	-157.5	30	-258.75	-352.5	-187.5	-138.75	-71.25	-37.5
1744	-127.5	52.5	-228.75	-292.5	-146.25	-108.75	-52.5	-22.5
1745	-86.25	78.75	-191.25	-221.25	-93.75	-71.25	-22.5	3.75
1746	-90	60	-165	-168.75	-63.75	-56.25	-15	3.75
1747	-101.25	37.5	-138.75	-142.5	-52.5	-56.25	-18.75	-7.5
1748	-123.75	11.25	-112.5	-123.75	-48.75	-60	-30	-18.75
1749	-116.25	11.25	-90	-108.75	-45	-63.75	-33.75	-26.25
1750	-82.5	37.5	-63.75	-90	-33.75	-52.5	-30	-22.5
1751	-67.5	45	-52.5	-82.5	-37.5	-60	-37.5	-26.25
1752	-48.75	52.5	-48.75	-82.5	-45	-71.25	-45	-37.5
1753	-45	48.75	-41.25	-75	-45	-75	-52.5	-41.25
1754	-45	37.5	-41.25	-75	-52.5	-82.5	-56.25	-45
1755	-60	18.75	-45	-78.75	-60	-97.5	-71.25	-60
1756	-108.75	-7.5	-45	-78.75	-71.25	-105	-78.75	-67.5
1757	-108.75	-11.25	-45	-82.5	-75	-108.75	-82.5	-71.25
1758	-75	0	-41.25	-82.5	-78.75	-112.5	-86.25	-71.25
1759	-60	-3.75	-48.75	-86.25	-86.25	-123.75	-101.25	-82.5
1760	-67.5	-22.5	-52.5	-93.75	-93.75	-135	-108.75	-93.75
1761	-82.5	-26.25	-48.75	-101.25	-101.25	-138.75	-108.75	-93.75
1762	-78.75	-7.5	-41.25	-93.75	-97.5	-131.25	-101.25	-90
1763	-67.5	7.5	-33.75	-86.25	-90	-123.75	-93.75	-86.25
1764	-78.75	-7.5	-41.25	-90	-97.5	-127.5	-101.25	-93.75
1765	-90	-22.5	-45	-90	-97.5	-127.5	-105	-97.5
1766	-71.25	-11.25	-37.5	-78.75	-90	-123.75	-97.5	-86.25
1767	-52.5	3.75	-33.75	-71.25	-82.5	-120	-93.75	-82.5
1768	-63.75	-3.75	-33.75	-71.25	-86.25	-120	-93.75	-82.5
1769	-71.25	-11.25	-37.5	-78.75	-90	-123.75	-97.5	-82.5
1770	-67.5	-11.25	-33.75	-78.75	-90	-123.75	-97.5	-82.5
1771	-63.75	-18.75	-41.25	-82.5	-97.5	-131.25	-105	-90
1772	-52.5	-26.25	-45	-90	-105	-138.75	-108.75	-93.75
1773	-82.5	-48.75	-56.25	-97.5	-112.5	-142.5	-116.25	-101.25
1774	-78.75	-33.75	-52.5	-97.5	-108.75	-135	-108.75	-97.5
1775	-60	-3.75	-37.5	-82.5	-93.75	-123.75	-101.25	-90
1776	-56.25	3.75	-26.25	-71.25	-82.5	-116.25	-90	-78.75
1777	-15	22.5	-22.5	-63.75	-75	-108.75	-86.25	-75
1778	-22.5	15	-26.25	-63.75	-78.75	-112.5	-90	-78.75
1779	-86.25	-26.25	-33.75	-67.5	-82.5	-120	-93.75	-82.5
1780	-97.5	-37.5	-45	-67.5	-86.25	-120	-93.75	-82.5
1781	-52.5	-3.75	-37.5	-60	-78.75	-108.75	-86.25	-75
1782	-30	22.5	-30	-56.25	-71.25	-105	-82.5	-67.5
1783	-37.5	7.5	-37.5	-63.75	-75	-108.75	-86.25	-75
1784	-22.5	7.5	-41.25	-67.5	-78.75	-112.5	-86.25	-75
1785	-11.25	26.25	-30	-60	-71.25	-101.25	-82.5	-71.25
1786	-26.25	22.5	-33.75	-60	-71.25	-101.25	-78.75	-67.5
1787	-33.75	18.75	-37.5	-60	-71.25	-101.25	-78.75	-67.5
1788	-33.75	22.5	-30	-52.5	-63.75	-93.75	-71.25	-60
1789	-37.5	26.25	-26.25	-45	-56.25	-86.25	-63.75	-56.25
1790	-30	33.75	-26.25	-33.75	-48.75	-82.5	-60	-48.75
1791	-15	26.25	-30	-30	-48.75	-82.5	-63.75	-48.75
1792	-3.75	15	-45	-45	-60	-93.75	-71.25	-60
1793	0	26.25	-48.75	-48.75	-60	-90	-67.5	-56.25
1794	0	41.25	-33.75	-33.75	-48.75	-75	-52.5	-41.25
1795	-3.75	37.5	-33.75	-33.75	-45	-71.25	-52.5	-41.25
1796	-18.75	18.75	-45	-45	-56.25	-82.5	-63.75	-56.25
1797	-11.25	22.5	-48.75	-48.75	-60	-86.25	-67.5	-60
1798	7.5	41.25	-41.25	-45	-56.25	-78.75	-60	-52.5
1799	0	37.5	-37.5	-37.5	-48.75	-75	-56.25	-48.75
1800	7.5	45	-37.5	-30	-41.25	-67.5	-48.75	-45
1801	26.25	75	-26.25	-11.25	-22.5	-52.5	-33.75	-26.25
1802	22.5	71.25	-26.25	-7.5	-22.5	-56.25	-37.5	-26.25
1803	18.75	45	-37.5	-15	-33.75	-67.5	-48.75	-33.75
1804	22.5	45	-48.75	-18.75	-37.5	-67.5	-48.75	-37.5
1805	18.75	56.25	-37.5	-11.25	-26.25	-48.75	-30	-26.25
1806	33.75	60	-37.5	-7.5	-18.75	-41.25	-22.5	-18.75
1807	37.5	56.25	-52.5	-15	-26.25	-52.5	-33.75	-30
1808	22.5	41.25	-56.25	-26.25	-33.75	-60	-41.25	-33.75
1809	18.75	33.75	-56.25	-26.25	-33.75	-56.25	-37.5	-30
1810	18.75	48.75	-45	-11.25	-26.25	-45	-30	-22.5
1811	11.25	63.75	-41.25	-3.75	-18.75	-37.5	-18.75	-15
1812	15	67.5	-45	-3.75	-18.75	-41.25	-18.75	-15
1813	52.5	78.75	-48.75	-3.75	-15	-41.25	-22.5	-15
1814	78.75	93.75	-48.75	3.75	-7.5	-37.5	-15	-7.5
1815	75	93.75	-45	15	-3.75	-30	-7.5	0
1816	67.5	90	-45	11.25	-3.75	-30	-7.5	0
1817	52.5	75	-52.5	3.75	-7.5	-33.75	-11.25	-3.75
1818	56.25	63.75	-60	-3.75	-15	-41.25	-18.75	-7.5
1819	71.25	63.75	-67.5	-7.5	-22.5	-45	-18.75	-11.25
1820	67.5	75	-60	-3.75	-15	-33.75	-11.25	-3.75
1821	67.5	86.25	-56.25	-3.75	-11.25	-30	-7.5	-3.75
1822	78.75	86.25	-63.75	-7.5	-11.25	-33.75	-11.25	-3.75
1823	82.5	82.5	-63.75	-3.75	-11.25	-30	-7.5	0
1824	82.5	90	-60	0	-7.5	-30	-7.5	3.75
1825	75	101.25	-52.5	11.25	0	-22.5	3.75	15
1826	86.25	116.25	-48.75	26.25	15	-7.5	15	26.25
1827	101.25	112.5	-52.5	22.5	7.5	-11.25	15	22.5
1828	108.75	101.25	-67.5	11.25	-7.5	-22.5	3.75	18.75
1829	105	105	-71.25	15	0	-18.75	11.25	22.5
1830	82.5	97.5	-67.5	15	3.75	-11.25	18.75	26.25
1831	75	86.25	-71.25	11.25	0	-15	15	26.25
1832	101.25	93.75	-71.25	11.25	-3.75	-15	15	26.25
1833	108.75	101.25	-71.25	7.5	-3.75	-15	18.75	26.25
1834	112.5	120	-63.75	11.25	3.75	-3.75	26.25	37.5
1835	120	131.25	-60	22.5	7.5	3.75	33.75	45
1836	123.75	131.25	-60	22.5	7.5	3.75	33.75	45
1837	112.5	123.75	-63.75	18.75	3.75	-3.75	26.25	41.25
1838	105	123.75	-67.5	22.5	0	-7.5	26.25	41.25
1839	123.75	135	-67.5	26.25	7.5	-3.75	33.75	45
1840	135	135	-71.25	26.25	3.75	-3.75	33.75	48.75
1841	161.25	157.5	-63.75	30	11.25	7.5	45	56.25
1842	157.5	153.75	-63.75	26.25	7.5	3.75	41.25	60
1843	157.5	146.25	-67.5	22.5	3.75	0	37.5	56.25
1844	202.5	187.5	-60	30	11.25	7.5	48.75	67.5
1845	225	213.75	-48.75	33.75	15	15	60	75
1846	198.75	191.25	-56.25	26.25	7.5	7.5	48.75	63.75
1847	165	146.25	-75	7.5	-11.25	-11.25	30	45
1848	135	116.25	-82.5	0	-22.5	-22.5	18.75	37.5
1849	138.75	131.25	-75	7.5	-18.75	-18.75	26.25	48.75
1850	157.5	153.75	-71.25	15	-11.25	-15	30	52.5
1851	157.5	153.75	-75	15	-11.25	-15	30	52.5
1852	157.5	150	-78.75	11.25	-18.75	-22.5	26.25	48.75
1853	161.25	153.75	-71.25	15	-15	-15	33.75	56.25
1854	153.75	146.25	-63.75	18.75	-15	-15	33.75	60
1855	150	138.75	-71.25	11.25	-22.5	-22.5	22.5	48.75
1856	157.5	142.5	-78.75	0	-33.75	-30	15	41.25
1857	153.75	142.5	-75	-3.75	-37.5	-33.75	15	37.5
1858	153.75	150	-63.75	3.75	-30	-26.25	18.75	45
1859	161.25	168.75	-52.5	15	-22.5	-22.5	22.5	48.75
1860	131.25	161.25	-45	18.75	-18.75	-18.75	26.25	52.5
1861	101.25	142.5	-48.75	15	-26.25	-26.25	18.75	45
1862	120	138.75	-52.5	11.25	-30	-37.5	7.5	37.5
1863	153.75	153.75	-52.5	11.25	-33.75	-41.25	3.75	33.75
1864	180	176.25	-48.75	15	-33.75	-37.5	7.5	33.75
1865	161.25	165	-45	15	-37.5	-41.25	3.75	33.75
1866	127.5	135	-48.75	7.5	-41.25	-48.75	-7.5	26.25
1867	135	135	-41.25	11.25	-37.5	-45	-7.5	26.25
1868	138.75	142.5	-30	15	-33.75	-45	-3.75	22.5
1869	108.75	127.5	-26.25	7.5	-41.25	-48.75	-11.25	15
1870	78.75	108.75	-30	0	-52.5	-56.25	-22.5	3.75
1871	71.25	112.5	-18.75	7.5	-45	-52.5	-18.75	3.75
1872	75	116.25	-11.25	15	-41.25	-48.75	-18.75	3.75
1873	75	112.5	-11.25	11.25	-45	-60	-26.25	-7.5
1874	63.75	105	-7.5	11.25	-45	-60	-30	-7.5
1875	30	71.25	-15	3.75	-56.25	-75	-41.25	-18.75
1876	7.5	45	-22.5	-7.5	-67.5	-86.25	-56.25	-37.5
1877	15	56.25	-15	-7.5	-63.75	-86.25	-52.5	-33.75
1878	30	71.25	-3.75	0	-52.5	-75	-45	-22.5
1879	26.25	60	-7.5	-3.75	-60	-82.5	-52.5	-30
1880	18.75	56.25	-7.5	-11.25	-63.75	-82.5	-56.25	-37.5
1881	7.5	52.5	-7.5	-22.5	-71.25	-90	-60	-45
1882	-3.75	41.25	-7.5	-26.25	-78.75	-97.5	-67.5	-52.5
1883	0	52.5	3.75	-18.75	-71.25	-93.75	-67.5	-52.5
1884	-7.5	52.5	7.5	-18.75	-71.25	-97.5	-67.5	-52.5
1885	-3.75	52.5	0	-26.25	-75	-101.25	-71.25	-56.25
1886	0	60	7.5	-18.75	-67.5	-93.75	-67.5	-52.5
1887	-26.25	30	7.5	-15	-67.5	-90	-67.5	-56.25
1888	-37.5	7.5	7.5	-26.25	-75	-97.5	-75	-63.75
1889	-41.25	15	-3.75	-37.5	-86.25	-112.5	-86.25	-78.75
1890	-26.25	30	-7.5	-48.75	-93.75	-120	-93.75	-82.5
1891	-15	26.25	0	-48.75	-93.75	-116.25	-90	-78.75
1892	-37.5	3.75	-3.75	-56.25	-97.5	-123.75	-97.5	-86.25
1893	-78.75	-15	-7.5	-67.5	-105	-127.5	-101.25	-90
1894	-108.75	-37.5	-15	-78.75	-112.5	-135	-108.75	-97.5
1895	-86.25	-30	-18.75	-82.5	-120	-138.75	-112.5	-105
1896	-75	-18.75	-7.5	-71.25	-112.5	-135	-105	-101.25
1897	-90	-26.25	0	-67.5	-108.75	-135	-105	-97.5
1898	-75	-7.5	0	-63.75	-101.25	-127.5	-101.25	-90
1899	-52.5	11.25	-3.75	-67.5	-105	-131.25	-105	-93.75
1900	-78.75	-22.5	-15	-78.75	-120	-146.25	-116.25	-108.75
1901	-105	-52.5	-26.25	-97.5	-135	-157.5	-127.5	-120
1902	-112.5	-45	-26.25	-97.5	-131.25	-157.5	-127.5	-112.5
1903	-101.25	-30	-26.25	-97.5	-131.25	-157.5	-123.75	-112.5
1904	-82.5	-22.5	-22.5	-101.25	-131.25	-157.5	-123.75	-116.25
1905	-75	-15	-11.25	-93.75	-123.75	-150	-120	-108.75
1906	-75	-15	-7.5	-93.75	-123.75	-146.25	-116.25	-105
1907	-90	-22.5	-7.5	-90	-123.75	-146.25	-116.25	-108.75
1908	-108.75	-30	-7.5	-93.75	-127.5	-150	-120	-112.5
1909	-97.5	-15	-3.75	-93.75	-123.75	-146.25	-116.25	-108.75
1910	-75	11.25	0	-82.5	-116.25	-138.75	-108.75	-97.5
1911	-71.25	11.25	0	-78.75	-112.5	-138.75	-108.75	-101.25
1912	-97.5	-22.5	-15	-97.5	-127.5	-153.75	-123.75	-116.25
1913	-105	-41.25	-22.5	-105	-135	-161.25	-131.25	-123.75
1914	-108.75	-52.5	-30	-108.75	-142.5	-165	-135	-127.5
1915	-131.25	-75	-33.75	-116.25	-146.25	-168.75	-138.75	-131.25
1916	-146.25	-86.25	-33.75	-120	-150	-172.5	-146.25	-135
1917	-120	-60	-26.25	-116.25	-146.25	-168.75	-138.75	-131.25
1918	-97.5	-37.5	-22.5	-112.5	-138.75	-161.25	-131.25	-123.75
1919	-120	-48.75	-18.75	-108.75	-138.75	-157.5	-131.25	-127.5
1920	-150	-71.25	-26.25	-112.5	-142.5	-165	-138.75	-135
1921	-138.75	-56.25	-18.75	-105	-135	-157.5	-131.25	-127.5
1922	-101.25	-18.75	-7.5	-90	-120	-146.25	-120	-112.5
1923	-86.25	-15	-7.5	-86.25	-120	-146.25	-120	-112.5
1924	-82.5	-26.25	-18.75	-97.5	-131.25	-157.5	-131.25	-123.75
1925	-75	-15	-11.25	-93.75	-123.75	-150	-123.75	-120
1926	-93.75	-18.75	-11.25	-90	-120	-146.25	-120	-116.25
1927	-108.75	-41.25	-22.5	-101.25	-131.25	-157.5	-131.25	-127.5
1928	-112.5	-45	-22.5	-101.25	-131.25	-153.75	-127.5	-123.75
1929	-105	-41.25	-22.5	-105	-127.5	-153.75	-127.5	-123.75
1930	-82.5	-26.25	-18.75	-105	-131.25	-150	-127.5	-123.75
1931	-90	-26.25	-11.25	-97.5	-127.5	-146.25	-120	-116.25
1932	-112.5	-30	-11.25	-93.75	-120	-142.5	-120	-120
1933	-112.5	-18.75	-7.5	-90	-116.25	-142.5	-116.25	-116.25
1934	-90	0	0	-78.75	-108.75	-131.25	-108.75	-108.75
1935	-75	0	-3.75	-78.75	-112.5	-135	-116.25	-112.5
1936	-82.5	-18.75	-15	-86.25	-120	-142.5	-120	-120
1937	-78.75	-26.25	-22.5	-97.5	-127.5	-150	-127.5	-123.75
1938	-86.25	-30	-18.75	-93.75	-120	-146.25	-123.75	-120
1939	-105	-37.5	-18.75	-93.75	-120	-142.5	-123.75	-120
1940	-116.25	-41.25	-18.75	-93.75	-120	-142.5	-120	-120
1941	-131.25	-52.5	-22.5	-101.25	-123.75	-146.25	-123.75	-123.75
1942	-116.25	-45	-22.5	-101.25	-127.5	-146.25	-123.75	-123.75
1943	-127.5	-45	-15	-97.5	-123.75	-146.25	-123.75	-120
1944	-135	-48.75	-11.25	-93.75	-120	-142.5	-120	-120
1945	-112.5	-30	-7.5	-86.25	-112.5	-138.75	-116.25	-116.25
1946	-82.5	3.75	3.75	-67.5	-97.5	-123.75	-101.25	-101.25
1947	-48.75	15	0	-71.25	-101.25	-127.5	-105	-101.25
1948	-71.25	-15	-11.25	-82.5	-116.25	-142.5	-120	-116.25
1949	-120	-56.25	-22.5	-93.75	-127.5	-150	-131.25	-123.75
1950	-127.5	-56.25	-22.5	-90	-123.75	-150	-131.25	-123.75
1951	-101.25	-30	-18.75	-86.25	-116.25	-138.75	-123.75	-116.25
1952	-112.5	-48.75	-22.5	-97.5	-123.75	-138.75	-123.75	-120
1953	-131.25	-71.25	-30	-105	-131.25	-142.5	-123.75	-127.5
1954	-120	-56.25	-26.25	-101.25	-127.5	-142.5	-123.75	-127.5
1955	-116.25	-41.25	-15	-90	-116.25	-135	-116.25	-116.25
1956	-127.5	-45	-18.75	-93.75	-120	-138.75	-120	-123.75
1957	-127.5	-37.5	-18.75	-93.75	-123.75	-142.5	-120	-123.75
1958	-105	-18.75	-3.75	-71.25	-105	-127.5	-105	-105
1959	-97.5	-15	0	-63.75	-97.5	-116.25	-97.5	-97.5
1960	-86.25	-15	-15	-78.75	-112.5	-131.25	-116.25	-112.5
1961	-86.25	-18.75	-33.75	-97.5	-123.75	-146.25	-127.5	-123.75
1962	-105	-37.5	-41.25	-101.25	-127.5	-150	-131.25	-127.5
1963	-120	-52.5	-33.75	-93.75	-123.75	-146.25	-123.75	-120
1964	-112.5	-52.5	-33.75	-93.75	-123.75	-146.25	-123.75	-120
1965	-78.75	-15	-22.5	-93.75	-120	-135	-116.25	-112.5
1966	-63.75	7.5	-15	-86.25	-112.5	-131.25	-112.5	-108.75
1967	-90	-18.75	-15	-86.25	-116.25	-131.25	-112.5	-108.75
1968	-101.25	-30	-18.75	-90	-116.25	-135	-112.5	-108.75
1969	-86.25	-3.75	-18.75	-86.25	-116.25	-131.25	-108.75	-105
1970	-60	26.25	-7.5	-75	-105	-120	-97.5	-93.75
1971	-45	22.5	-7.5	-71.25	-101.25	-120	-101.25	-93.75
1972	-60	-18.75	-30	-90	-116.25	-138.75	-120	-112.5
1973	-71.25	-30	-33.75	-101.25	-127.5	-142.5	-123.75	-116.25
1974	-78.75	-15	-26.25	-93.75	-120	-138.75	-116.25	-108.75
1975	-82.5	-18.75	-26.25	-93.75	-120	-138.75	-120	-108.75
1976	-105	-45	-30	-105	-131.25	-150	-127.5	-120
1977	-120	-56.25	-33.75	-112.5	-135	-150	-131.25	-123.75
1978	-108.75	-41.25	-30	-108.75	-131.25	-142.5	-123.75	-120
1979	-90	-15	-18.75	-97.5	-120	-131.25	-112.5	-108.75
1980	-90	-7.5	-11.25	-90	-116.25	-131.25	-108.75	-101.25
1981	-93.75	-11.25	-18.75	-90	-120	-135	-112.5	-105
1982	-86.25	-11.25	-22.5	-93.75	-116.25	-138.75	-116.25	-108.75
1983	-97.5	-22.5	-26.25	-93.75	-120	-142.5	-120	-112.5
1984	-93.75	-26.25	-33.75	-101.25	-127.5	-146.25	-123.75	-116.25
1985	-71.25	-22.5	-33.75	-101.25	-127.5	-146.25	-120	-116.25
1986	-63.75	-15	-33.75	-105	-131.25	-146.25	-123.75	-116.25
1987	-71.25	-11.25	-37.5	-108.75	-135	-153.75	-131.25	-123.75
1988	-78.75	-18.75	-41.25	-116.25	-142.5	-161.25	-135	-127.5
1989	-82.5	-30	-41.25	-120	-146.25	-161.25	-135	-131.25
1990	-93.75	-37.5	-41.25	-123.75	-146.25	-161.25	-138.75	-131.25
1991	-105	-37.5	-33.75	-116.25	-135	-150	-127.5	-120
1992	-101.25	-41.25	-33.75	-116.25	-142.5	-153.75	-131.25	-127.5
1993	-108.75	-52.5	-41.25	-123.75	-150	-165	-142.5	-135
1994	-127.5	-52.5	-37.5	-116.25	-142.5	-161.25	-135	-123.75
1995	-146.25	-60	-37.5	-112.5	-138.75	-157.5	-131.25	-120
1996	-138.75	-60	-41.25	-116.25	-142.5	-161.25	-131.25	-123.75
1997	-127.5	-48.75	-37.5	-112.5	-142.5	-157.5	-131.25	-120
1998	-116.25	-45	-41.25	-120	-146.25	-161.25	-138.75	-123.75
1999	-101.25	-45	-41.25	-123.75	-150	-165	-142.5	-127.5
2000	-105	-45	-41.25	-123.75	-150	-165	-142.5	-127.5
2001	-112.5	-45	-41.25	-127.5	-153.75	-165	-142.5	-131.25
2002	-127.5	-56.25	-48.75	-135	-161.25	-172.5	-150	-138.75
2003	-120	-56.25	-48.75	-138.75	-165	-176.25	-153.75	-142.5
2004	-112.5	-48.75	-41.25	-131.25	-157.5	-172.5	-146.25	-135
2005	-120	-45	-33.75	-123.75	-150	-165	-142.5	-131.25
2006	-116.25	-33.75	-26.25	-112.5	-142.5	-157.5	-135	-123.75
2007	-101.25	-33.75	-37.5	-116.25	-150	-168.75	-142.5	-127.5
2008	-101.25	-48.75	-52.5	-135	-165	-180	-153.75	-138.75
2009	-93.75	-33.75	-41.25	-127.5	-153.75	-168.75	-142.5	-127.5
2010	-90	-18.75	-37.5	-120	-150	-161.25	-135	-120
2011	-101.25	-33.75	-41.25	-127.5	-157.5	-168.75	-142.5	-127.5
2012	-108.75	-52.5	-48.75	-138.75	-168.75	-176.25	-150	-138.75
2013	-116.25	-56.25	-52.5	-146.25	-172.5	-180	-153.75	-142.5
2014	-127.5	-56.25	-48.75	-142.5	-168.75	-172.5	-150	-138.75
2015	-131.25	-56.25	-45	-135	-165	-172.5	-150	-135
2016	-135	-56.25	-41.25	-131.25	-161.25	-168.75	-142.5	-131.25
2017	-120	-45	-45	-135	-165	-172.5	-146.25	-135
2018	-105	-30	-41.25	-123.75	-157.5	-168.75	-146.25	-127.5
2019	-101.25	-37.5	-45	-127.5	-161.25	-172.5	-146.25	-131.25
2020	-63.75	-15	-37.5	-123.75	-153.75	-165	-142.5	-123.75
2021	-37.5	18.75	-30	-116.25	-146.25	-157.5	-131.25	-116.25
2022	-67.5	-7.5	-37.5	-123.75	-153.75	-165	-142.5	-123.75
2023	-112.5	-56.25	-56.25	-142.5	-172.5	-183.75	-157.5	-138.75
2024	-142.5	-86.25	-60	-150	-180	-191.25	-168.75	-146.25
2025	-142.5	-93.75	-63.75	-157.5	-187.5	-198.75	-176.25	-150
2026	-127.5	-75	-63.75	-153.75	-183.75	-195	-168.75	-146.25
2027	-120	-52.5	-52.5	-150	-176.25	-183.75	-161.25	-142.5
2028	-116.25	-37.5	-41.25	-135	-161.25	-168.75	-146.25	-131.25
2029	-101.25	-18.75	-33.75	-127.5	-157.5	-165	-138.75	-127.5
2030	-86.25	-7.5	-33.75	-123.75	-153.75	-161.25	-138.75	-123.75
2031	-86.25	-30	-48.75	-131.25	-161.25	-176.25	-150	-131.25
2032	-105	-56.25	-52.5	-138.75	-168.75	-183.75	-157.5	-138.75
2033	-97.5	-45	-56.25	-146.25	-172.5	-187.5	-157.5	-138.75
2034	-86.25	-30	-48.75	-138.75	-165	-180	-150	-127.5
2035	-97.5	-33.75	-48.75	-135	-161.25	-176.25	-150	-127.5
2036	-105	-45	-52.5	-142.5	-168.75	-183.75	-157.5	-138.75
2037	-116.25	-52.5	-56.25	-150	-172.5	-187.5	-165	-142.5
2038	-153.75	-67.5	-60	-153.75	-176.25	-187.5	-161.25	-146.25
2039	-161.25	-75	-56.25	-150	-176.25	-187.5	-161.25	-146.25
2040	-108.75	-60	-60	-153.75	-180	-195	-168.75	-150
2041	-93.75	-45	-56.25	-146.25	-172.5	-187.5	-161.25	-142.5
2042	-120	-45	-48.75	-131.25	-165	-176.25	-150	-135
2043	-127.5	-56.25	-52.5	-135	-165	-180	-153.75	-135
2044	-123.75	-63.75	-52.5	-138.75	-168.75	-180	-150	-131.25
2045	-123.75	-67.5	-56.25	-138.75	-172.5	-180	-153.75	-135
2046	-127.5	-67.5	-48.75	-135	-165	-176.25	-146.25	-127.5
2047	-127.5	-56.25	-48.75	-135	-168.75	-176.25	-150	-127.5
2048	-127.5	-45	-52.5	-142.5	-172.5	-180	-153.75	-135
2049	-146.25	-67.5	-56.25	-146.25	-176.25	-183.75	-157.5	-138.75
2050	-146.25	-60	-45	-138.75	-168.75	-176.25	-146.25	-131.25
2051	-123.75	-30	-33.75	-135	-161.25	-168.75	-142.5	-123.75
2052	-123.75	-37.5	-41.25	-138.75	-168.75	-176.25	-150	-131.25
2053	-123.75	-45	-45	-138.75	-168.75	-180	-150	-131.25
2054	-101.25	-22.5	-41.25	-131.25	-161.25	-172.5	-150	-127.5
2055	-101.25	-22.5	-41.25	-131.25	-165	-176.25	-157.5	-131.25
2056	-108.75	-41.25	-56.25	-142.5	-176.25	-191.25	-168.75	-142.5
2057	-97.5	-37.5	-52.5	-142.5	-172.5	-187.5	-161.25	-135
2058	-97.5	-41.25	-52.5	-142.5	-172.5	-187.5	-161.25	-135
2059	-112.5	-60	-52.5	-142.5	-176.25	-187.5	-161.25	-135
2060	-116.25	-71.25	-52.5	-142.5	-176.25	-183.75	-157.5	-131.25
2061	-108.75	-67.5	-48.75	-146.25	-176.25	-183.75	-157.5	-135
2062	-120	-60	-48.75	-150	-176.25	-187.5	-161.25	-138.75
2063	-131.25	-60	-45	-146.25	-176.25	-183.75	-157.5	-135
2064	-135	-60	-41.25	-138.75	-172.5	-180	-153.75	-131.25
2065	-131.25	-56.25	-41.25	-138.75	-172.5	-180	-153.75	-131.25
2066	-101.25	-37.5	-41.25	-135	-168.75	-180	-153.75	-131.25
2067	-90	-33.75	-45	-131.25	-168.75	-183.75	-157.5	-131.25
2068	-86.25	-33.75	-45	-135	-168.75	-183.75	-153.75	-131.25
2069	-86.25	-30	-41.25	-127.5	-161.25	-176.25	-146.25	-120
2070	-97.5	-41.25	-45	-131.25	-165	-176.25	-150	-123.75
2071	-93.75	-48.75	-45	-138.75	-168.75	-180	-153.75	-123.75
2072	-93.75	-45	-48.75	-142.5	-172.5	-183.75	-157.5	-127.5
2073	-93.75	-45	-52.5	-150	-176.25	-187.5	-157.5	-135
2074	-101.25	-52.5	-52.5	-153.75	-180	-191.25	-161.25	-138.75
2075	-127.5	-67.5	-52.5	-150	-180	-191.25	-161.25	-138.75
2076	-131.25	-63.75	-52.5	-150	-180	-191.25	-165	-138.75
2077	-142.5	-75	-52.5	-150	-180	-191.25	-161.25	-138.75
2078	-150	-75	-45	-146.25	-180	-191.25	-161.25	-138.75
2079	-101.25	-30	-33.75	-123.75	-157.5	-180	-150	-123.75
2080	-78.75	-18.75	-30	-116.25	-150	-172.5	-142.5	-120
2081	-97.5	-30	-33.75	-120	-153.75	-168.75	-142.5	-120
2082	-120	-37.5	-30	-120	-153.75	-168.75	-138.75	-120
2083	-123.75	-37.5	-26.25	-120	-153.75	-168.75	-138.75	-120
2084	-97.5	-15	-11.25	-105	-142.5	-157.5	-131.25	-108.75
2085	-101.25	-22.5	-15	-112.5	-146.25	-161.25	-131.25	-116.25
2086	-123.75	-41.25	-22.5	-123.75	-157.5	-172.5	-146.25	-127.5
2087	-120	-18.75	-3.75	-108.75	-142.5	-161.25	-135	-112.5
2088	-108.75	-3.75	7.5	-97.5	-135	-153.75	-127.5	-105
2089	-97.5	3.75	7.5	-93.75	-135	-153.75	-127.5	-108.75
2090	-90	11.25	15	-82.5	-123.75	-146.25	-120	-101.25
2091	-90	-3.75	11.25	-82.5	-123.75	-146.25	-120	-105
2092	-90	-26.25	0	-90	-135	-153.75	-127.5	-112.5
2093	-97.5	-30	0	-90	-135	-153.75	-127.5	-108.75
2094	-90	-11.25	15	-75	-120	-146.25	-120	-97.5
2095	-60	22.5	30	-63.75	-108.75	-138.75	-112.5	-90
2096	-60	26.25	33.75	-67.5	-112.5	-138.75	-112.5	-90
2097	-82.5	15	30	-71.25	-116.25	-138.75	-108.75	-93.75
2098	-90	18.75	30	-67.5	-112.5	-127.5	-101.25	-90
2099	-71.25	26.25	26.25	-71.25	-112.5	-127.5	-101.25	-90
2100	-63.75	33.75	18.75	-78.75	-116.25	-127.5	-101.25	-90
2101	-63.75	48.75	22.5	-71.25	-105	-120	-90	-75
2102	-60	56.25	11.25	-67.5	-101.25	-120	-86.25	-67.5
2103	-56.25	45	-15	-75	-108.75	-123.75	-90	-71.25
2104	-63.75	30	-33.75	-82.5	-112.5	-127.5	-93.75	-78.75
2105	-71.25	22.5	-45	-93.75	-123.75	-135	-101.25	-78.75
2106	-56.25	11.25	-52.5	-101.25	-131.25	-142.5	-108.75	-82.5
2107	-30	18.75	-56.25	-105	-131.25	-138.75	-108.75	-86.25
2108	-41.25	22.5	-63.75	-112.5	-135	-142.5	-108.75	-86.25
2109	-48.75	11.25	-71.25	-127.5	-146.25	-153.75	-116.25	-93.75
2110	-37.5	7.5	-78.75	-138.75	-157.5	-161.25	-123.75	-101.25
2111	-48.75	0	-78.75	-138.75	-157.5	-157.5	-127.5	-97.5
2112	-82.5	-15	-78.75	-142.5	-161.25	-161.25	-127.5	-101.25
2113	-93.75	-15	-71.25	-142.5	-161.25	-165	-131.25	-101.25
2114	-67.5	0	-63.75	-135	-161.25	-161.25	-127.5	-97.5
2115	-41.25	11.25	-63.75	-127.5	-153.75	-161.25	-123.75	-97.5
2116	-26.25	11.25	-60	-127.5	-146.25	-157.5	-123.75	-97.5
2117	-22.5	11.25	-56.25	-123.75	-146.25	-157.5	-120	-93.75
2118	-30	0	-60	-131.25	-153.75	-161.25	-127.5	-105
2119	-41.25	-15	-60	-131.25	-153.75	-165	-127.5	-105
2120	-63.75	-33.75	-67.5	-146.25	-168.75	-172.5	-138.75	-112.5
2121	-71.25	-33.75	-71.25	-150	-172.5	-176.25	-142.5	-116.25
2122	-75	-30	-67.5	-150	-168.75	-172.5	-142.5	-116.25
2123	-116.25	-56.25	-67.5	-157.5	-176.25	-180	-150	-123.75
2124	-123.75	-52.5	-63.75	-153.75	-172.5	-180	-150	-123.75
2125	-112.5	-33.75	-52.5	-138.75	-161.25	-172.5	-138.75	-112.5
2126	-112.5	-37.5	-52.5	-135	-161.25	-176.25	-142.5	-120
2127	-127.5	-52.5	-52.5	-135	-165	-176.25	-142.5	-120
2128	-153.75	-90	-63.75	-150	-180	-195	-161.25	-138.75
2129	-131.25	-86.25	-67.5	-157.5	-187.5	-198.75	-165	-142.5
2130	-86.25	-52.5	-48.75	-142.5	-172.5	-183.75	-150	-127.5
2131	-93.75	-63.75	-48.75	-142.5	-176.25	-187.5	-153.75	-127.5
2132	-127.5	-86.25	-63.75	-161.25	-195	-206.25	-172.5	-146.25
2133	-123.75	-75	-67.5	-168.75	-198.75	-210	-176.25	-153.75
2134	-123.75	-75	-60	-168.75	-195	-206.25	-172.5	-150
2135	-131.25	-71.25	-52.5	-161.25	-187.5	-198.75	-165	-146.25
2136	-120	-56.25	-52.5	-157.5	-183.75	-195	-161.25	-138.75
2137	-123.75	-60	-56.25	-157.5	-183.75	-195	-161.25	-142.5
2138	-123.75	-45	-48.75	-146.25	-176.25	-187.5	-157.5	-131.25
2139	-97.5	-30	-48.75	-142.5	-172.5	-191.25	-157.5	-131.25
2140	-101.25	-63.75	-63.75	-157.5	-187.5	-202.5	-168.75	-146.25
2141	-131.25	-90	-67.5	-161.25	-191.25	-206.25	-172.5	-150
2142	-127.5	-86.25	-63.75	-157.5	-187.5	-202.5	-168.75	-146.25
2143	-116.25	-78.75	-63.75	-157.5	-187.5	-198.75	-165	-142.5
2144	-120	-78.75	-63.75	-161.25	-191.25	-202.5	-168.75	-146.25
2145	-131.25	-90	-67.5	-168.75	-195	-210	-172.5	-150
2146	-131.25	-82.5	-63.75	-168.75	-195	-206.25	-168.75	-150
2147	-142.5	-71.25	-60	-161.25	-187.5	-202.5	-168.75	-146.25
2148	-153.75	-82.5	-56.25	-161.25	-187.5	-202.5	-168.75	-146.25
2149	-142.5	-82.5	-52.5	-153.75	-183.75	-195	-165	-142.5
2150	-138.75	-75	-45	-142.5	-172.5	-191.25	-153.75	-135
2151	-135	-67.5	-45	-135	-168.75	-187.5	-150	-131.25
2152	-116.25	-63.75	-56.25	-146.25	-176.25	-198.75	-161.25	-138.75
2153	-123.75	-75	-60	-153.75	-187.5	-206.25	-168.75	-146.25
2154	-131.25	-93.75	-56.25	-153.75	-187.5	-210	-176.25	-157.5
2155	-131.25	-112.5	-41.25	-138.75	-187.5	-217.5	-191.25	-176.25
2156	-123.75	-123.75	-15	-108.75	-187.5	-232.5	-210	-198.75
2157	-127.5	-146.25	33.75	-63.75	-172.5	-240	-228.75	-221.25
2158	-123.75	-161.25	90	-15	-161.25	-255	-251.25	-247.5
2159	-123.75	-157.5	142.5	30	-150	-262.5	-266.25	-262.5
2160	-127.5	-157.5	180	71.25	-131.25	-262.5	-270	-266.25
2161	-93.75	-116.25	213.75	131.25	-86.25	-232.5	-247.5	-247.5
2162	-52.5	-41.25	262.5	225	-11.25	-168.75	-191.25	-202.5
2163	-15	11.25	288.75	296.25	52.5	-116.25	-146.25	-157.5
2164	52.5	48.75	300	345	105	-67.5	-101.25	-116.25
2165	105	93.75	300	382.5	157.5	-11.25	-48.75	-63.75
2166	150	153.75	303.75	431.25	213.75	52.5	18.75	0
2167	221.25	232.5	296.25	480	281.25	131.25	101.25	78.75
2168	296.25	311.25	266.25	510	356.25	228.75	206.25	176.25
2169	352.5	405	228.75	521.25	427.5	333.75	318.75	281.25
2170	431.25	540	183.75	525	506.25	457.5	450	412.5
2171	540	697.5	138.75	543.75	603.75	600	607.5	562.5
2172	588.75	866.25	138.75	615	742.5	768.75	780	723.75
2173	637.5	1072.5	108.75	648.75	858.75	937.5	971.25	918.75
2174	701.25	1308.75	3.75	603.75	941.25	1102.5	1177.5	1140
2175	738.75	1462.5	-112.5	528.75	997.5	1248.75	1353.75	1327.5
2176	761.25	1485	-243.75	375	982.5	1320	1455	1432.5
2177	753.75	1492.5	-363.75	210	952.5	1376.25	1541.25	1515
2178	697.5	1473.75	-390	165	997.5	1458.75	1620	1567.5
2179	630	1406.25	-367.5	168.75	1053.75	1522.5	1657.5	1563.75
2180	551.25	1346.25	-371.25	116.25	1068.75	1548.75	1665	1545
2181	431.25	1260	-412.5	0	1016.25	1503.75	1612.5	1481.25
2182	311.25	1110	-438.75	-135	881.25	1353.75	1451.25	1331.25
2183	187.5	945	-393.75	-206.25	731.25	1136.25	1218.75	1117.5
2184	60	780	-352.5	-292.5	532.5	862.5	948.75	885
2185	-63.75	600	-378.75	-446.25	251.25	540	656.25	648.75
2186	-157.5	461.25	-397.5	-588.75	0	258.75	401.25	450
2187	-232.5	345	-382.5	-656.25	-157.5	71.25	217.5	292.5
2188	-288.75	198.75	-371.25	-663.75	-228.75	-45	75	142.5
2189	-300	82.5	-371.25	-641.25	-255	-108.75	-22.5	22.5
2190	-311.25	15	-375	-615	-258.75	-135	-67.5	-37.5
2191	-330	-15	-375	-562.5	-236.25	-127.5	-67.5	-48.75
2192	-296.25	0	-348.75	-502.5	-206.25	-108.75	-48.75	-33.75
2193	-236.25	22.5	-318.75	-457.5	-210	-116.25	-52.5	-30
2194	-202.5	7.5	-292.5	-423.75	-228.75	-142.5	-71.25	-48.75
2195	-165	11.25	-266.25	-375	-217.5	-142.5	-75	-52.5
2196	-123.75	37.5	-232.5	-311.25	-176.25	-120	-60	-41.25
2197	-120	45	-191.25	-236.25	-127.5	-86.25	-33.75	-18.75
2198	-105	56.25	-153.75	-161.25	-75	-56.25	-7.5	-3.75
2199	-71.25	75	-123.75	-120	-48.75	-45	-7.5	-7.5
2200	-56.25	75	-93.75	-93.75	-41.25	-45	-11.25	-11.25
2201	-41.25	78.75	-63.75	-71.25	-30	-37.5	-7.5	-7.5
2202	-52.5	60	-48.75	-60	-30	-41.25	-18.75	-18.75
2203	-86.25	18.75	-48.75	-67.5	-45	-60	-37.5	-41.25
2204	-93.75	3.75	-48.75	-71.25	-56.25	-75	-52.5	-52.5
2205	-93.75	3.75	-45	-75	-63.75	-82.5	-56.25	-60
2206	-86.25	3.75	-41.25	-78.75	-71.25	-90	-67.5	-67.5
2207	-63.75	11.25	-37.5	-75	-71.25	-93.75	-71.25	-75
2208	-75	7.5	-30	-75	-75	-101.25	-75	-78.75
2209	-82.5	7.5	-33.75	-75	-82.5	-108.75	-86.25	-86.25
2210	-75	11.25	-26.25	-67.5	-78.75	-108.75	-86.25	-82.5
2211	-101.25	-15	-22.5	-63.75	-82.5	-112.5	-90	-86.25
2212	-105	-22.5	-22.5	-63.75	-86.25	-116.25	-93.75	-90
2213	-75	-3.75	-22.5	-60	-78.75	-112.5	-90	-86.25
2214	-71.25	-11.25	-26.25	-67.5	-90	-120	-97.5	-93.75
2215	-90	-26.25	-33.75	-75	-101.25	-131.25	-105	-101.25
2216	-90	-22.5	-33.75	-75	-105	-131.25	-105	-101.25
2217	-71.25	-11.25	-30	-71.25	-101.25	-127.5	-105	-101.25
2218	-78.75	-22.5	-30	-75	-101.25	-131.25	-108.75	-105
2219	-82.5	-26.25	-30	-75	-105	-131.25	-108.75	-105
2220	-82.5	-11.25	-18.75	-60	-93.75	-120	-97.5	-93.75
2221	-67.5	-7.5	-18.75	-60	-93.75	-123.75	-97.5	-97.5
2222	-75	-15	-15	-52.5	-86.25	-120	-97.5	-93.75
2223	-71.25	-3.75	-15	-48.75	-86.25	-120	-97.5	-93.75
2224	-52.5	-3.75	-22.5	-56.25	-93.75	-123.75	-101.25	-93.75
2225	-48.75	-3.75	-22.5	-56.25	-93.75	-123.75	-101.25	-93.75
2226	-37.5	22.5	-11.25	-41.25	-78.75	-108.75	-86.25	-78.75
2227	-41.25	15	-15	-45	-82.5	-116.25	-93.75	-82.5
2228	-71.25	-18.75	-22.5	-52.5	-90	-123.75	-101.25	-90
2229	-82.5	-33.75	-33.75	-63.75	-97.5	-127.5	-105	-97.5
2230	-63.75	-22.5	-33.75	-67.5	-101.25	-127.5	-101.25	-101.25
2231	-56.25	0	-22.5	-56.25	-86.25	-112.5	-90	-90
2232	-56.25	11.25	-22.5	-48.75	-82.5	-108.75	-86.25	-90
2233	-45	11.25	-22.5	-48.75	-86.25	-112.5	-90	-90
2234	-18.75	33.75	-15	-37.5	-75	-105	-82.5	-78.75
2235	-22.5	41.25	-11.25	-22.5	-63.75	-97.5	-75	-71.25
2236	-26.25	18.75	-22.5	-30	-67.5	-101.25	-78.75	-75
2237	-15	11.25	-26.25	-33.75	-71.25	-105	-78.75	-75
2238	-11.25	18.75	-26.25	-33.75	-71.25	-105	-78.75	-75
2239	-22.5	7.5	-30	-37.5	-75	-108.75	-82.5	-78.75
2240	-41.25	-15	-33.75	-45	-78.75	-105	-86.25	-86.25
2241	-52.5	-18.75	-37.5	-48.75	-78.75	-105	-86.25	-86.25
2242	-33.75	3.75	-30	-41.25	-75	-101.25	-78.75	-78.75
2243	-18.75	18.75	-22.5	-33.75	-67.5	-90	-71.25	-71.25
2244	-18.75	22.5	-26.25	-33.75	-67.5	-93.75	-71.25	-75
2245	-30	15	-26.25	-30	-63.75	-93.75	-71.25	-75
2246	-33.75	15	-26.25	-22.5	-60	-86.25	-67.5	-67.5
2247	-3.75	37.5	-18.75	-11.25	-45	-75	-56.25	-52.5
2248	18.75	41.25	-26.25	-15	-48.75	-82.5	-60	-60
2249	26.25	45	-26.25	-15	-48.75	-82.5	-60	-60
2250	30	67.5	-18.75	-3.75	-37.5	-67.5	-45	-45
2251	18.75	56.25	-26.25	-11.25	-41.25	-71.25	-48.75	-48.75
2252	15	33.75	-37.5	-22.5	-52.5	-82.5	-60	-60
2253	7.5	26.25	-33.75	-22.5	-52.5	-78.75	-56.25	-56.25
2254	-3.75	30	-33.75	-18.75	-48.75	-75	-52.5	-56.25
2255	-11.25	30	-26.25	-11.25	-41.25	-67.5	-48.75	-48.75
2256	-15	30	-26.25	-7.5	-41.25	-67.5	-45	-48.75
2257	0	41.25	-26.25	0	-33.75	-60	-37.5	-41.25
2258	22.5	63.75	-22.5	7.5	-22.5	-48.75	-30	-33.75
2259	33.75	63.75	-26.25	11.25	-22.5	-52.5	-33.75	-33.75
2260	26.25	45	-37.5	3.75	-30	-60	-41.25	-41.25
2261	41.25	56.25	-33.75	3.75	-26.25	-52.5	-30	-33.75
2262	48.75	63.75	-33.75	7.5	-22.5	-48.75	-26.25	-26.25
2263	26.25	52.5	-33.75	7.5	-18.75	-48.75	-26.25	-26.25
2264	3.75	41.25	-33.75	7.5	-18.75	-45	-26.25	-26.25
2265	-7.5	30	-41.25	-3.75	-33.75	-52.5	-30	-33.75
2266	7.5	41.25	-48.75	-11.25	-37.5	-56.25	-33.75	-37.5
2267	37.5	67.5	-41.25	0	-22.5	-48.75	-30	-30
2268	56.25	86.25	-26.25	15	-7.5	-33.75	-15	-18.75
2269	75	93.75	-22.5	26.25	-3.75	-26.25	-7.5	-11.25
2270	75	105	-22.5	33.75	3.75	-22.5	0	-3.75
2271	45	82.5	-33.75	26.25	-7.5	-33.75	-7.5	-11.25
2272	33.75	52.5	-52.5	11.25	-18.75	-45	-22.5	-22.5
2273	48.75	63.75	-48.75	15	-15	-37.5	-15	-15
2274	45	52.5	-56.25	11.25	-15	-37.5	-15	-15
2275	60	56.25	-48.75	18.75	-7.5	-30	-7.5	-7.5
