samplenr	I	II	V1	V2	V3	V4	V5	V6	measurement
0	-157.5	101.25	-292.5	-416.25	-105	-37.5	-18.75	33.75
1	-108.75	105	-288.75	-401.25	-131.25	-63.75	-33.75	26.25
2	-97.5	71.25	-296.25	-397.5	-176.25	-112.5	-71.25	0
3	-97.5	41.25	-292.5	-382.5	-191.25	-138.75	-97.5	-26.25
4	-71.25	52.5	-262.5	-341.25	-176.25	-135	-97.5	-26.25
5	-56.25	60	-236.25	-296.25	-150	-120	-86.25	-18.75
6	-52.5	71.25	-206.25	-228.75	-101.25	-86.25	-60	3.75
7	0	123.75	-153.75	-150	-41.25	-37.5	-22.5	37.5
8	67.5	176.25	-108.75	-97.5	-3.75	-15	0	48.75
9	90	180	-82.5	-67.5	11.25	-7.5	3.75	52.5
10	48.75	131.25	-75	-63.75	7.5	-18.75	-11.25	37.5
11	-18.75	67.5	-82.5	-71.25	-11.25	-41.25	-33.75	15
12	-41.25	33.75	-78.75	-75	-22.5	-52.5	-48.75	3.75
13	-18.75	33.75	-78.75	-75	-26.25	-63.75	-63.75	-7.5
14	15	60	-67.5	-71.25	-26.25	-67.5	-60	-3.75
15	22.5	60	-67.5	-75	-37.5	-71.25	-67.5	-11.25
16	-18.75	22.5	-71.25	-82.5	-52.5	-82.5	-78.75	-30
17	-45	7.5	-67.5	-82.5	-48.75	-82.5	-82.5	-30
18	-33.75	11.25	-63.75	-78.75	-48.75	-78.75	-82.5	-33.75
19	-22.5	7.5	-67.5	-86.25	-60	-90	-90	-41.25
20	11.25	41.25	-52.5	-71.25	-56.25	-82.5	-82.5	-30
21	30	82.5	-33.75	-48.75	-33.75	-67.5	-63.75	-7.5
22	11.25	56.25	-48.75	-60	-45	-78.75	-75	-22.5
23	7.5	30	-71.25	-78.75	-63.75	-97.5	-93.75	-37.5
24	22.5	56.25	-56.25	-63.75	-52.5	-86.25	-82.5	-22.5
25	30	63.75	-60	-63.75	-56.25	-90	-86.25	-30
26	56.25	67.5	-60	-67.5	-60	-93.75	-90	-33.75
27	63.75	75	-56.25	-63.75	-52.5	-90	-82.5	-30
28	30	52.5	-56.25	-67.5	-52.5	-90	-82.5	-30
29	26.25	37.5	-60	-75	-63.75	-97.5	-90	-37.5
30	41.25	48.75	-52.5	-67.5	-60	-93.75	-86.25	-37.5
31	26.25	37.5	-60	-71.25	-67.5	-101.25	-90	-41.25
32	-3.75	11.25	-71.25	-78.75	-75	-108.75	-97.5	-45
33	-3.75	26.25	-67.5	-71.25	-63.75	-101.25	-93.75	-37.5
34	15	45	-63.75	-63.75	-56.25	-93.75	-86.25	-30
35	48.75	60	-60	-56.25	-52.5	-86.25	-78.75	-22.5
36	60	71.25	-56.25	-56.25	-52.5	-86.25	-75	-18.75
37	63.75	71.25	-52.5	-48.75	-41.25	-78.75	-71.25	-15
38	48.75	56.25	-60	-56.25	-45	-82.5	-75	-18.75
39	30	33.75	-63.75	-63.75	-56.25	-90	-82.5	-26.25
40	41.25	37.5	-56.25	-56.25	-48.75	-82.5	-75	-18.75
41	56.25	48.75	-52.5	-52.5	-41.25	-78.75	-67.5	-15
42	33.75	41.25	-56.25	-52.5	-41.25	-75	-67.5	-18.75
43	22.5	33.75	-63.75	-52.5	-45	-78.75	-71.25	-18.75
44	71.25	63.75	-60	-45	-37.5	-75	-63.75	-15
45	116.25	101.25	-56.25	-37.5	-26.25	-67.5	-56.25	-3.75
46	97.5	93.75	-60	-37.5	-26.25	-67.5	-56.25	-3.75
47	48.75	67.5	-67.5	-45	-37.5	-75	-63.75	-7.5
48	33.75	56.25	-67.5	-45	-37.5	-71.25	-60	-7.5
49	67.5	75	-63.75	-45	-33.75	-71.25	-60	-3.75
50	93.75	97.5	-60	-37.5	-26.25	-63.75	-52.5	0
51	97.5	101.25	-60	-37.5	-26.25	-60	-52.5	0
52	86.25	86.25	-67.5	-45	-33.75	-67.5	-60	-7.5
53	63.75	63.75	-75	-52.5	-41.25	-75	-67.5	-15
54	52.5	56.25	-71.25	-45	-37.5	-75	-63.75	-11.25
55	67.5	60	-71.25	-41.25	-30	-71.25	-63.75	-11.25
56	93.75	82.5	-67.5	-30	-18.75	-56.25	-48.75	3.75
57	93.75	93.75	-63.75	-22.5	-15	-52.5	-45	11.25
58	97.5	101.25	-67.5	-22.5	-11.25	-48.75	-41.25	15
59	120	120	-63.75	-18.75	-7.5	-41.25	-33.75	22.5
60	112.5	116.25	-63.75	-18.75	-7.5	-41.25	-33.75	22.5
61	101.25	116.25	-63.75	-15	-3.75	-37.5	-30	22.5
62	93.75	105	-71.25	-22.5	-11.25	-41.25	-33.75	18.75
63	101.25	97.5	-78.75	-30	-15	-45	-41.25	11.25
64	112.5	97.5	-78.75	-33.75	-18.75	-48.75	-37.5	11.25
65	101.25	90	-78.75	-30	-15	-41.25	-33.75	15
66	93.75	93.75	-75	-26.25	-11.25	-41.25	-33.75	18.75
67	127.5	131.25	-60	-7.5	3.75	-26.25	-18.75	33.75
68	176.25	168.75	-52.5	3.75	15	-15	-7.5	45
69	187.5	176.25	-60	0	11.25	-18.75	-7.5	45
70	168.75	165	-63.75	-7.5	7.5	-18.75	-11.25	45
71	153.75	150	-67.5	-7.5	3.75	-22.5	-11.25	45
72	138.75	135	-75	-11.25	0	-22.5	-15	45
73	142.5	142.5	-75	-7.5	7.5	-18.75	-7.5	48.75
74	142.5	135	-78.75	-15	3.75	-22.5	-11.25	41.25
75	131.25	112.5	-86.25	-22.5	-7.5	-33.75	-18.75	37.5
76	127.5	97.5	-90	-30	-11.25	-33.75	-22.5	33.75
77	120	93.75	-97.5	-33.75	-15	-33.75	-22.5	30
78	127.5	105	-97.5	-30	-15	-37.5	-22.5	33.75
79	138.75	123.75	-86.25	-18.75	0	-26.25	-7.5	45
80	123.75	123.75	-82.5	-11.25	7.5	-15	0	56.25
81	123.75	116.25	-93.75	-15	-3.75	-26.25	-11.25	48.75
82	153.75	127.5	-97.5	-18.75	-3.75	-30	-15	45
83	172.5	157.5	-90	-15	0	-18.75	-3.75	56.25
84	157.5	161.25	-90	-11.25	3.75	-11.25	3.75	63.75
85	150	142.5	-97.5	-18.75	0	-15	0	60
86	168.75	142.5	-108.75	-33.75	-11.25	-26.25	-7.5	52.5
87	187.5	153.75	-105	-33.75	-11.25	-26.25	-3.75	52.5
88	191.25	153.75	-101.25	-26.25	-3.75	-18.75	3.75	60
89	198.75	161.25	-93.75	-18.75	0	-15	7.5	67.5
90	210	180	-90	-15	3.75	-11.25	15	75
91	202.5	172.5	-93.75	-18.75	3.75	-11.25	11.25	75
92	191.25	165	-97.5	-15	0	-11.25	11.25	75
93	198.75	168.75	-101.25	-15	-3.75	-18.75	7.5	71.25
94	210	168.75	-112.5	-30	-11.25	-26.25	3.75	67.5
95	240	206.25	-101.25	-22.5	-7.5	-15	18.75	82.5
96	255	228.75	-93.75	-15	3.75	-3.75	26.25	93.75
97	225	176.25	-116.25	-33.75	-18.75	-30	3.75	75
98	210	146.25	-127.5	-52.5	-33.75	-41.25	-7.5	63.75
99	217.5	153.75	-123.75	-52.5	-37.5	-37.5	-3.75	63.75
100	217.5	157.5	-123.75	-56.25	-41.25	-41.25	-7.5	60
101	195	146.25	-123.75	-56.25	-45	-45	-11.25	60
102	165	131.25	-123.75	-60	-45	-48.75	-11.25	60
103	183.75	161.25	-112.5	-48.75	-33.75	-37.5	3.75	75
104	221.25	198.75	-105	-37.5	-30	-33.75	7.5	82.5
105	232.5	191.25	-120	-52.5	-45	-48.75	-3.75	71.25
106	225	180	-127.5	-63.75	-56.25	-56.25	-15	63.75
107	225	187.5	-123.75	-63.75	-56.25	-60	-15	71.25
108	240	202.5	-112.5	-60	-56.25	-52.5	-7.5	78.75
109	202.5	195	-105	-48.75	-45	-41.25	3.75	90
110	153.75	161.25	-112.5	-60	-52.5	-48.75	-3.75	78.75
111	195	157.5	-131.25	-82.5	-75	-67.5	-26.25	56.25
112	240	187.5	-116.25	-71.25	-63.75	-56.25	-11.25	71.25
113	221.25	195	-101.25	-56.25	-52.5	-45	0	82.5
114	228.75	195	-101.25	-60	-60	-52.5	-7.5	75
115	240	191.25	-108.75	-71.25	-71.25	-63.75	-18.75	63.75
116	217.5	198.75	-93.75	-60	-63.75	-60	-15	75
117	221.25	217.5	-86.25	-48.75	-56.25	-52.5	-7.5	78.75
118	258.75	240	-82.5	-45	-52.5	-52.5	-7.5	78.75
119	262.5	228.75	-90	-56.25	-60	-60	-15	71.25
120	198.75	168.75	-105	-78.75	-82.5	-82.5	-37.5	48.75
121	157.5	131.25	-112.5	-93.75	-105	-97.5	-52.5	33.75
122	153.75	123.75	-112.5	-93.75	-105	-101.25	-56.25	26.25
123	161.25	131.25	-105	-82.5	-90	-93.75	-52.5	26.25
124	168.75	146.25	-90	-75	-82.5	-86.25	-45	30
125	153.75	131.25	-86.25	-71.25	-82.5	-90	-52.5	26.25
126	127.5	120	-75	-63.75	-78.75	-86.25	-52.5	22.5
127	135	138.75	-71.25	-60	-75	-86.25	-52.5	22.5
128	150	146.25	-71.25	-60	-75	-90	-52.5	22.5
129	172.5	165	-60	-45	-63.75	-78.75	-45	30
130	176.25	168.75	-60	-45	-63.75	-78.75	-48.75	26.25
131	153.75	146.25	-63.75	-48.75	-67.5	-86.25	-56.25	18.75
132	123.75	131.25	-56.25	-48.75	-67.5	-90	-60	15
133	135	150	-45	-41.25	-56.25	-78.75	-56.25	18.75
134	153.75	157.5	-45	-41.25	-56.25	-75	-52.5	18.75
135	146.25	135	-56.25	-56.25	-71.25	-90	-67.5	3.75
136	108.75	105	-52.5	-56.25	-71.25	-97.5	-71.25	-3.75
137	82.5	97.5	-37.5	-45	-56.25	-86.25	-63.75	0
138	86.25	93.75	-37.5	-45	-60	-86.25	-67.5	-3.75
139	82.5	82.5	-45	-48.75	-63.75	-90	-67.5	-7.5
140	78.75	82.5	-41.25	-45	-60	-86.25	-71.25	-7.5
141	97.5	105	-33.75	-37.5	-52.5	-86.25	-67.5	-7.5
142	112.5	116.25	-41.25	-45	-60	-93.75	-75	-15
143	93.75	101.25	-45	-48.75	-60	-93.75	-78.75	-18.75
144	41.25	75	-37.5	-45	-56.25	-90	-75	-15
145	22.5	78.75	-22.5	-33.75	-45	-78.75	-63.75	-3.75
146	60	86.25	-26.25	-37.5	-48.75	-82.5	-67.5	-11.25
147	78.75	75	-33.75	-52.5	-60	-93.75	-82.5	-26.25
148	82.5	86.25	-26.25	-45	-52.5	-82.5	-71.25	-18.75
149	86.25	86.25	-26.25	-48.75	-60	-90	-78.75	-26.25
150	75	67.5	-26.25	-56.25	-63.75	-97.5	-86.25	-30
151	33.75	48.75	-26.25	-56.25	-63.75	-97.5	-86.25	-33.75
152	15	41.25	-26.25	-56.25	-63.75	-97.5	-86.25	-33.75
153	15	48.75	-26.25	-52.5	-63.75	-97.5	-86.25	-33.75
154	18.75	52.5	-30	-60	-67.5	-101.25	-90	-37.5
155	41.25	71.25	-22.5	-56.25	-63.75	-97.5	-86.25	-33.75
156	45	67.5	-26.25	-63.75	-71.25	-105	-93.75	-41.25
157	11.25	33.75	-41.25	-78.75	-82.5	-116.25	-105	-52.5
158	-3.75	22.5	-41.25	-82.5	-86.25	-120	-108.75	-56.25
159	-3.75	26.25	-37.5	-78.75	-78.75	-112.5	-101.25	-52.5
160	11.25	37.5	-37.5	-86.25	-82.5	-112.5	-105	-52.5
161	15	41.25	-33.75	-82.5	-82.5	-116.25	-105	-52.5
162	-7.5	33.75	-37.5	-86.25	-86.25	-120	-112.5	-60
163	-22.5	37.5	-37.5	-82.5	-82.5	-120	-108.75	-60
164	0	52.5	-33.75	-75	-78.75	-116.25	-105	-56.25
165	22.5	52.5	-33.75	-78.75	-82.5	-123.75	-108.75	-56.25
166	60	90	-18.75	-67.5	-67.5	-108.75	-93.75	-41.25
167	45	86.25	-15	-63.75	-63.75	-101.25	-90	-37.5
168	-3.75	26.25	-37.5	-90	-90	-127.5	-116.25	-63.75
169	-15	15	-45	-97.5	-93.75	-131.25	-120	-71.25
170	-18.75	22.5	-33.75	-90	-86.25	-123.75	-108.75	-63.75
171	-15	15	-33.75	-90	-86.25	-120	-108.75	-63.75
172	-7.5	11.25	-41.25	-101.25	-93.75	-127.5	-116.25	-71.25
173	-7.5	15	-41.25	-93.75	-86.25	-127.5	-112.5	-67.5
174	-7.5	26.25	-33.75	-90	-86.25	-123.75	-108.75	-63.75
175	-22.5	18.75	-33.75	-90	-90	-127.5	-116.25	-67.5
176	-11.25	26.25	-37.5	-82.5	-82.5	-131.25	-116.25	-63.75
177	18.75	52.5	-30	-75	-71.25	-123.75	-108.75	-56.25
178	15	52.5	-26.25	-71.25	-71.25	-116.25	-101.25	-48.75
179	-3.75	37.5	-30	-71.25	-67.5	-108.75	-97.5	-48.75
180	3.75	26.25	-41.25	-78.75	-71.25	-112.5	-97.5	-56.25
181	22.5	41.25	-37.5	-75	-71.25	-105	-93.75	-52.5
182	-7.5	41.25	-26.25	-67.5	-60	-97.5	-86.25	-41.25
183	-41.25	11.25	-33.75	-78.75	-67.5	-105	-93.75	-52.5
184	-15	11.25	-41.25	-86.25	-75	-112.5	-101.25	-60
185	15	37.5	-30	-75	-67.5	-105	-93.75	-52.5
186	15	52.5	-15	-63.75	-52.5	-93.75	-82.5	-41.25
187	11.25	52.5	-18.75	-63.75	-56.25	-93.75	-86.25	-45
188	-18.75	37.5	-26.25	-63.75	-56.25	-97.5	-90	-45
189	-7.5	48.75	-26.25	-63.75	-56.25	-97.5	-86.25	-45
190	48.75	90	-22.5	-60	-52.5	-93.75	-82.5	-37.5
191	60	97.5	-26.25	-60	-48.75	-90	-78.75	-37.5
192	26.25	67.5	-37.5	-71.25	-60	-101.25	-93.75	-48.75
193	11.25	45	-41.25	-75	-63.75	-101.25	-97.5	-52.5
194	18.75	37.5	-45	-82.5	-67.5	-105	-101.25	-56.25
195	7.5	26.25	-52.5	-93.75	-75	-112.5	-105	-60
196	-26.25	18.75	-45	-90	-75	-108.75	-101.25	-56.25
197	-26.25	33.75	-33.75	-75	-63.75	-97.5	-90	-45
198	-7.5	37.5	-33.75	-71.25	-63.75	-97.5	-90	-48.75
199	-18.75	22.5	-41.25	-78.75	-63.75	-105	-97.5	-52.5
200	3.75	41.25	-37.5	-67.5	-60	-97.5	-90	-45
201	22.5	63.75	-37.5	-63.75	-52.5	-93.75	-86.25	-41.25
202	-3.75	60	-33.75	-60	-48.75	-86.25	-78.75	-33.75
203	7.5	67.5	-33.75	-60	-48.75	-86.25	-75	-33.75
204	7.5	56.25	-45	-71.25	-56.25	-90	-82.5	-41.25
205	3.75	48.75	-48.75	-75	-60	-97.5	-90	-45
206	37.5	63.75	-45	-71.25	-56.25	-93.75	-86.25	-45
207	71.25	75	-41.25	-71.25	-52.5	-86.25	-82.5	-41.25
208	52.5	45	-52.5	-86.25	-67.5	-101.25	-93.75	-52.5
209	0	11.25	-56.25	-90	-75	-108.75	-101.25	-60
210	-22.5	15	-48.75	-78.75	-63.75	-101.25	-97.5	-52.5
211	-26.25	37.5	-33.75	-63.75	-48.75	-86.25	-78.75	-37.5
212	-26.25	60	-26.25	-60	-45	-86.25	-78.75	-33.75
213	3.75	75	-41.25	-71.25	-60	-97.5	-90	-45
214	41.25	93.75	-45	-71.25	-60	-101.25	-93.75	-45
215	60	101.25	-48.75	-75	-60	-97.5	-90	-41.25
216	56.25	86.25	-48.75	-75	-56.25	-93.75	-90	-41.25
217	33.75	71.25	-45	-71.25	-52.5	-86.25	-82.5	-33.75
218	45	71.25	-41.25	-71.25	-56.25	-86.25	-78.75	-30
219	41.25	60	-41.25	-75	-52.5	-82.5	-75	-30
220	18.75	52.5	-37.5	-78.75	-52.5	-82.5	-75	-33.75
221	15	60	-37.5	-71.25	-48.75	-78.75	-71.25	-33.75
222	-11.25	26.25	-56.25	-86.25	-63.75	-97.5	-90	-52.5
223	-45	-7.5	-67.5	-101.25	-86.25	-116.25	-108.75	-67.5
224	-26.25	15	-56.25	-90	-75	-105	-97.5	-52.5
225	22.5	41.25	-52.5	-78.75	-60	-97.5	-90	-45
226	41.25	52.5	-48.75	-82.5	-60	-97.5	-90	-45
227	33.75	60	-48.75	-86.25	-67.5	-97.5	-90	-45
228	22.5	52.5	-60	-93.75	-75	-108.75	-97.5	-48.75
229	-3.75	37.5	-60	-93.75	-75	-108.75	-97.5	-52.5
230	-3.75	41.25	-60	-86.25	-67.5	-97.5	-90	-45
231	18.75	45	-56.25	-90	-67.5	-97.5	-90	-45
232	33.75	60	-52.5	-90	-63.75	-97.5	-86.25	-37.5
233	30	67.5	-41.25	-78.75	-52.5	-82.5	-75	-26.25
234	33.75	60	-45	-78.75	-56.25	-86.25	-78.75	-33.75
235	18.75	48.75	-48.75	-82.5	-60	-90	-78.75	-37.5
236	7.5	52.5	-52.5	-86.25	-63.75	-93.75	-82.5	-37.5
237	33.75	63.75	-56.25	-90	-67.5	-101.25	-90	-45
238	45	56.25	-63.75	-97.5	-78.75	-108.75	-97.5	-52.5
239	41.25	67.5	-56.25	-93.75	-71.25	-105	-93.75	-45
240	15	78.75	-45	-78.75	-56.25	-90	-78.75	-30
241	-18.75	41.25	-56.25	-90	-67.5	-101.25	-90	-41.25
242	-22.5	0	-82.5	-123.75	-97.5	-127.5	-116.25	-67.5
243	-15	-7.5	-86.25	-131.25	-105	-135	-123.75	-75
244	-3.75	7.5	-71.25	-120	-90	-123.75	-108.75	-63.75
245	11.25	33.75	-52.5	-101.25	-75	-105	-93.75	-48.75
246	11.25	45	-45	-93.75	-67.5	-101.25	-90	-41.25
247	-7.5	45	-41.25	-90	-63.75	-97.5	-86.25	-37.5
248	-18.75	52.5	-37.5	-78.75	-56.25	-90	-78.75	-30
249	-11.25	45	-56.25	-97.5	-75	-108.75	-97.5	-45
250	26.25	48.75	-71.25	-112.5	-93.75	-127.5	-112.5	-56.25
251	48.75	60	-71.25	-112.5	-90	-123.75	-108.75	-56.25
252	7.5	30	-82.5	-120	-97.5	-131.25	-116.25	-63.75
253	-15	22.5	-78.75	-116.25	-93.75	-127.5	-112.5	-60
254	-7.5	41.25	-63.75	-105	-82.5	-112.5	-97.5	-45
255	-30	18.75	-63.75	-112.5	-90	-116.25	-101.25	-52.5
256	-18.75	11.25	-71.25	-123.75	-97.5	-127.5	-112.5	-63.75
257	-3.75	22.5	-63.75	-116.25	-93.75	-123.75	-112.5	-60
258	-15	11.25	-71.25	-120	-97.5	-131.25	-120	-67.5
259	-18.75	11.25	-75	-123.75	-101.25	-142.5	-127.5	-71.25
260	11.25	56.25	-60	-108.75	-86.25	-123.75	-108.75	-52.5
261	41.25	93.75	-45	-93.75	-75	-108.75	-90	-37.5
262	41.25	75	-63.75	-108.75	-86.25	-116.25	-101.25	-48.75
263	48.75	78.75	-63.75	-108.75	-82.5	-112.5	-97.5	-48.75
264	37.5	67.5	-71.25	-112.5	-90	-116.25	-105	-56.25
265	-33.75	-3.75	-97.5	-135	-112.5	-138.75	-127.5	-75
266	-82.5	-41.25	-97.5	-146.25	-120	-146.25	-135	-82.5
267	-45	-22.5	-93.75	-150	-120	-150	-135	-86.25
268	-7.5	3.75	-90	-142.5	-116.25	-142.5	-131.25	-82.5
269	-22.5	15	-75	-131.25	-105	-131.25	-120	-67.5
270	-33.75	7.5	-71.25	-123.75	-101.25	-127.5	-116.25	-67.5
271	-7.5	30	-63.75	-112.5	-90	-120	-105	-56.25
272	11.25	63.75	-52.5	-101.25	-78.75	-108.75	-97.5	-41.25
273	0	60	-60	-105	-86.25	-116.25	-105	-48.75
274	11.25	52.5	-71.25	-116.25	-97.5	-127.5	-116.25	-60
275	7.5	52.5	-71.25	-120	-101.25	-127.5	-116.25	-60
276	-15	63.75	-56.25	-105	-86.25	-112.5	-97.5	-41.25
277	3.75	63.75	-52.5	-105	-82.5	-108.75	-97.5	-41.25
278	33.75	56.25	-60	-108.75	-90	-116.25	-105	-56.25
279	22.5	52.5	-60	-112.5	-90	-120	-108.75	-56.25
280	-18.75	37.5	-56.25	-116.25	-93.75	-120	-112.5	-60
281	-26.25	37.5	-48.75	-116.25	-97.5	-120	-112.5	-60
282	7.5	82.5	-26.25	-90	-71.25	-101.25	-93.75	-37.5
283	26.25	123.75	-11.25	-67.5	-48.75	-86.25	-75	-22.5
284	30	120	-15	-71.25	-56.25	-93.75	-82.5	-26.25
285	41.25	112.5	-18.75	-75	-63.75	-101.25	-90	-33.75
286	37.5	108.75	-11.25	-71.25	-60	-97.5	-86.25	-33.75
287	15	90	-15	-78.75	-63.75	-101.25	-90	-37.5
288	22.5	82.5	-18.75	-78.75	-67.5	-101.25	-93.75	-41.25
289	26.25	86.25	-11.25	-67.5	-56.25	-93.75	-82.5	-30
290	15	82.5	-7.5	-67.5	-52.5	-90	-78.75	-30
291	-3.75	71.25	-3.75	-67.5	-52.5	-86.25	-75	-30
292	-3.75	67.5	-3.75	-67.5	-56.25	-90	-78.75	-33.75
293	3.75	75	0	-67.5	-56.25	-90	-78.75	-33.75
294	7.5	86.25	3.75	-67.5	-52.5	-90	-78.75	-33.75
295	-3.75	101.25	11.25	-52.5	-41.25	-78.75	-67.5	-22.5
296	-3.75	120	15	-45	-30	-71.25	-60	-11.25
297	26.25	138.75	7.5	-45	-33.75	-71.25	-56.25	-11.25
298	63.75	161.25	-3.75	-52.5	-37.5	-71.25	-60	-7.5
299	63.75	153.75	-22.5	-63.75	-45	-78.75	-63.75	-11.25
300	45	135	-33.75	-67.5	-45	-75	-63.75	-7.5
301	56.25	138.75	-45	-71.25	-45	-75	-63.75	-11.25
302	52.5	112.5	-71.25	-90	-60	-86.25	-71.25	-18.75
303	-3.75	60	-90	-105	-71.25	-97.5	-82.5	-26.25
304	-18.75	63.75	-82.5	-93.75	-60	-86.25	-71.25	-15
305	37.5	101.25	-78.75	-93.75	-56.25	-78.75	-63.75	-7.5
306	93.75	135	-78.75	-90	-52.5	-75	-60	-3.75
307	108.75	153.75	-78.75	-86.25	-52.5	-71.25	-56.25	0
308	86.25	127.5	-97.5	-105	-71.25	-93.75	-75	-15
309	67.5	97.5	-116.25	-127.5	-93.75	-116.25	-93.75	-30
310	75	105	-108.75	-123.75	-86.25	-108.75	-86.25	-22.5
311	60	105	-97.5	-116.25	-78.75	-101.25	-78.75	-18.75
312	15	86.25	-90	-116.25	-82.5	-101.25	-78.75	-15
313	41.25	101.25	-90	-123.75	-86.25	-108.75	-86.25	-22.5
314	56.25	86.25	-101.25	-135	-97.5	-120	-101.25	-37.5
315	18.75	52.5	-97.5	-135	-101.25	-123.75	-101.25	-41.25
316	45	82.5	-75	-116.25	-82.5	-105	-86.25	-26.25
317	63.75	105	-63.75	-105	-71.25	-97.5	-78.75	-18.75
318	26.25	71.25	-78.75	-120	-90	-116.25	-97.5	-37.5
319	-15	45	-82.5	-123.75	-97.5	-120	-105	-45
320	-3.75	60	-78.75	-116.25	-90	-120	-101.25	-41.25
321	15	67.5	-86.25	-127.5	-101.25	-127.5	-108.75	-52.5
322	-3.75	48.75	-90	-138.75	-112.5	-138.75	-116.25	-56.25
323	-37.5	22.5	-97.5	-146.25	-112.5	-142.5	-120	-60
324	-45	7.5	-105	-157.5	-123.75	-150	-127.5	-71.25
325	-30	15	-105	-157.5	-127.5	-153.75	-135	-75
326	-22.5	26.25	-97.5	-153.75	-123.75	-153.75	-131.25	-71.25
327	-33.75	7.5	-101.25	-161.25	-131.25	-157.5	-138.75	-82.5
328	-18.75	7.5	-101.25	-165	-135	-161.25	-142.5	-86.25
329	-18.75	7.5	-93.75	-157.5	-131.25	-157.5	-142.5	-86.25
330	-11.25	22.5	-82.5	-146.25	-120	-150	-131.25	-75
331	3.75	56.25	-71.25	-135	-108.75	-138.75	-120	-63.75
332	3.75	63.75	-71.25	-131.25	-105	-138.75	-116.25	-63.75
333	18.75	60	-82.5	-138.75	-112.5	-142.5	-123.75	-67.5
334	33.75	71.25	-82.5	-142.5	-116.25	-142.5	-123.75	-67.5
335	-7.5	56.25	-82.5	-142.5	-112.5	-138.75	-120	-63.75
336	-78.75	0	-86.25	-150	-120	-146.25	-127.5	-67.5
337	-97.5	-30	-97.5	-161.25	-131.25	-153.75	-135	-82.5
338	-67.5	-37.5	-105	-172.5	-138.75	-161.25	-142.5	-90
339	-33.75	-30	-112.5	-180	-150	-176.25	-153.75	-97.5
340	-22.5	-3.75	-101.25	-176.25	-142.5	-168.75	-150	-90
341	-41.25	0	-93.75	-168.75	-138.75	-165	-142.5	-82.5
342	-45	3.75	-90	-168.75	-142.5	-161.25	-135	-78.75
343	-33.75	3.75	-93.75	-165	-142.5	-161.25	-135	-82.5
344	-15	7.5	-97.5	-157.5	-135	-157.5	-135	-86.25
345	3.75	26.25	-93.75	-153.75	-131.25	-150	-135	-82.5
346	-22.5	37.5	-82.5	-146.25	-123.75	-142.5	-123.75	-71.25
347	-33.75	60	-63.75	-131.25	-108.75	-127.5	-108.75	-56.25
348	37.5	97.5	-63.75	-127.5	-105	-127.5	-108.75	-52.5
349	63.75	97.5	-75	-138.75	-112.5	-135	-116.25	-60
350	0	41.25	-86.25	-153.75	-123.75	-146.25	-127.5	-75
351	-48.75	-30	-105	-172.5	-146.25	-168.75	-150	-101.25
352	-63.75	-52.5	-97.5	-165	-146.25	-172.5	-157.5	-108.75
353	-71.25	-22.5	-48.75	-120	-120	-157.5	-146.25	-97.5
354	-56.25	-26.25	-15	-90	-116.25	-168.75	-165	-123.75
355	-37.5	-41.25	18.75	-56.25	-116.25	-195	-198.75	-157.5
356	-41.25	-30	86.25	3.75	-93.75	-195	-206.25	-165
357	-56.25	-60	116.25	30	-97.5	-213.75	-228.75	-191.25
358	-18.75	-60	135	56.25	-93.75	-221.25	-243.75	-206.25
359	33.75	-7.5	176.25	123.75	-41.25	-183.75	-213.75	-176.25
360	67.5	63.75	221.25	202.5	26.25	-123.75	-161.25	-127.5
361	82.5	116.25	255	277.5	93.75	-63.75	-105	-78.75
362	112.5	135	262.5	318.75	138.75	-22.5	-67.5	-45
363	165	165	251.25	337.5	172.5	18.75	-26.25	-7.5
364	240	240	262.5	386.25	232.5	90	48.75	63.75
365	345	341.25	262.5	446.25	311.25	183.75	146.25	157.5
366	442.5	438.75	236.25	487.5	390	281.25	247.5	255
367	506.25	558.75	210	517.5	476.25	393.75	371.25	378.75
368	570	690	161.25	521.25	555	510	502.5	510
369	648.75	825	112.5	540	648.75	645	645	648.75
370	712.5	986.25	101.25	607.5	776.25	806.25	813.75	810
371	765	1185	41.25	615	881.25	971.25	997.5	1001.25
372	817.5	1395	-75	570	963.75	1136.25	1203.75	1218.75
373	900	1530	-183.75	510	1027.5	1275	1368.75	1383.75
374	960	1552.5	-307.5	378.75	1023.75	1342.5	1458.75	1473.75
375	945	1567.5	-393.75	273.75	1035	1417.5	1548.75	1556.25
376	885	1545	-386.25	285	1106.25	1503.75	1620	1597.5
377	806.25	1462.5	-382.5	266.25	1140	1537.5	1627.5	1567.5
378	712.5	1406.25	-416.25	180	1132.5	1541.25	1620	1537.5
379	611.25	1350	-438.75	67.5	1068.75	1481.25	1552.5	1470
380	487.5	1207.5	-442.5	-60	922.5	1308.75	1376.25	1312.5
381	315	993.75	-412.5	-157.5	742.5	1061.25	1121.25	1083.75
382	142.5	795	-390	-277.5	513.75	780	851.25	855
383	33.75	637.5	-416.25	-442.5	243.75	487.5	581.25	641.25
384	-60	491.25	-446.25	-592.5	7.5	236.25	348.75	453.75
385	-153.75	352.5	-431.25	-656.25	-123.75	75	180	296.25
386	-198.75	232.5	-405	-637.5	-165	-11.25	60	161.25
387	-187.5	153.75	-393.75	-607.5	-180	-63.75	-18.75	60
388	-172.5	123.75	-393.75	-566.25	-172.5	-75	-41.25	26.25
389	-176.25	123.75	-375	-498.75	-135	-48.75	-22.5	37.5
390	-150	120	-356.25	-457.5	-135	-52.5	-18.75	37.5
391	-135	101.25	-337.5	-431.25	-157.5	-75	-33.75	26.25
392	-116.25	105	-300	-375	-146.25	-78.75	-33.75	30
393	-71.25	112.5	-281.25	-333.75	-135	-82.5	-37.5	26.25
394	-7.5	123.75	-273.75	-303.75	-127.5	-82.5	-45	18.75
395	15	131.25	-243.75	-243.75	-82.5	-52.5	-22.5	30
396	15	138.75	-206.25	-180	-41.25	-22.5	0	48.75
397	37.5	157.5	-165	-135	-15	-7.5	7.5	52.5
398	41.25	161.25	-131.25	-105	3.75	0	7.5	48.75
399	3.75	127.5	-112.5	-97.5	-3.75	-11.25	-7.5	33.75
400	-3.75	108.75	-93.75	-86.25	0	-15	-15	26.25
401	37.5	135	-75	-67.5	7.5	-11.25	-7.5	33.75
402	48.75	127.5	-75	-71.25	0	-22.5	-22.5	22.5
403	48.75	120	-71.25	-75	-7.5	-30	-26.25	15
404	71.25	138.75	-63.75	-67.5	-7.5	-30	-26.25	15
405	63.75	120	-75	-75	-22.5	-48.75	-41.25	0
406	33.75	82.5	-86.25	-93.75	-45	-71.25	-63.75	-15
407	22.5	67.5	-93.75	-101.25	-52.5	-78.75	-71.25	-22.5
408	22.5	78.75	-86.25	-93.75	-48.75	-75	-67.5	-15
409	22.5	90	-71.25	-90	-48.75	-71.25	-60	-11.25
410	30	90	-67.5	-90	-48.75	-71.25	-63.75	-11.25
411	41.25	97.5	-63.75	-82.5	-37.5	-63.75	-60	-11.25
412	67.5	120	-52.5	-75	-33.75	-60	-56.25	-7.5
413	60	105	-63.75	-82.5	-45	-71.25	-63.75	-15
414	30	71.25	-71.25	-86.25	-52.5	-78.75	-71.25	-22.5
415	45	93.75	-60	-75	-41.25	-67.5	-60	-11.25
416	30	105	-48.75	-60	-33.75	-56.25	-52.5	0
417	-33.75	56.25	-67.5	-78.75	-48.75	-75	-71.25	-15
418	-3.75	52.5	-86.25	-97.5	-67.5	-97.5	-93.75	-33.75
419	67.5	97.5	-75	-90	-60	-90	-86.25	-22.5
420	67.5	108.75	-67.5	-78.75	-52.5	-82.5	-75	-15
421	56.25	93.75	-75	-86.25	-56.25	-78.75	-71.25	-18.75
422	67.5	86.25	-78.75	-90	-52.5	-75	-67.5	-18.75
423	71.25	78.75	-82.5	-93.75	-63.75	-75	-71.25	-22.5
424	37.5	75	-71.25	-82.5	-52.5	-67.5	-63.75	-15
425	15	86.25	-60	-67.5	-37.5	-56.25	-52.5	-3.75
426	45	101.25	-56.25	-67.5	-37.5	-60	-56.25	-3.75
427	60	108.75	-60	-63.75	-37.5	-60	-56.25	-3.75
428	63.75	120	-60	-60	-33.75	-56.25	-52.5	0
429	123.75	150	-60	-60	-33.75	-56.25	-48.75	3.75
430	101.25	127.5	-67.5	-67.5	-41.25	-63.75	-56.25	-3.75
431	41.25	86.25	-78.75	-78.75	-48.75	-71.25	-63.75	-7.5
432	22.5	90	-67.5	-67.5	-37.5	-60	-52.5	3.75
433	26.25	105	-52.5	-56.25	-26.25	-45	-41.25	15
434	75	108.75	-63.75	-67.5	-37.5	-56.25	-48.75	3.75
435	108.75	112.5	-71.25	-75	-41.25	-60	-56.25	-3.75
436	90	112.5	-56.25	-60	-30	-48.75	-41.25	11.25
437	90	123.75	-48.75	-52.5	-22.5	-37.5	-33.75	18.75
438	112.5	138.75	-52.5	-52.5	-18.75	-37.5	-33.75	18.75
439	116.25	142.5	-48.75	-45	-15	-33.75	-26.25	26.25
440	90	123.75	-63.75	-48.75	-18.75	-41.25	-33.75	18.75
441	63.75	101.25	-75	-56.25	-30	-48.75	-41.25	11.25
442	67.5	101.25	-75	-56.25	-30	-45	-41.25	15
443	90	116.25	-75	-60	-30	-41.25	-37.5	18.75
444	108.75	120	-82.5	-63.75	-33.75	-48.75	-41.25	11.25
445	105	112.5	-86.25	-67.5	-37.5	-52.5	-48.75	7.5
446	78.75	105	-82.5	-60	-30	-45	-41.25	11.25
447	75	120	-67.5	-45	-15	-30	-26.25	26.25
448	112.5	157.5	-52.5	-33.75	-3.75	-15	-11.25	41.25
449	116.25	161.25	-56.25	-33.75	-3.75	-18.75	-15	41.25
450	105	142.5	-63.75	-37.5	-7.5	-22.5	-18.75	37.5
451	123.75	157.5	-60	-30	0	-15	-11.25	41.25
452	150	176.25	-60	-26.25	0	-15	-11.25	41.25
453	153.75	176.25	-67.5	-30	-3.75	-18.75	-15	37.5
454	150	168.75	-67.5	-26.25	0	-15	-11.25	45
455	123.75	153.75	-67.5	-26.25	3.75	-11.25	-3.75	52.5
456	101.25	127.5	-82.5	-37.5	-11.25	-22.5	-15	41.25
457	123.75	123.75	-86.25	-45	-15	-26.25	-22.5	33.75
458	153.75	150	-78.75	-37.5	-7.5	-18.75	-15	41.25
459	165	176.25	-67.5	-30	0	-7.5	-3.75	48.75
460	150	176.25	-60	-18.75	15	3.75	7.5	60
461	127.5	153.75	-67.5	-18.75	11.25	0	3.75	60
462	142.5	161.25	-63.75	-15	15	7.5	11.25	67.5
463	191.25	217.5	-48.75	7.5	33.75	22.5	30	86.25
464	191.25	217.5	-56.25	3.75	30	18.75	22.5	82.5
465	142.5	157.5	-82.5	-18.75	7.5	-3.75	0	60
466	138.75	153.75	-86.25	-22.5	7.5	-3.75	3.75	63.75
467	183.75	191.25	-78.75	-15	15	3.75	11.25	67.5
468	198.75	195	-78.75	-15	15	7.5	11.25	67.5
469	191.25	180	-86.25	-22.5	7.5	0	3.75	63.75
470	131.25	165	-78.75	-15	18.75	7.5	18.75	75
471	86.25	165	-56.25	7.5	37.5	30	41.25	97.5
472	142.5	172.5	-71.25	-7.5	22.5	18.75	26.25	82.5
473	210	191.25	-86.25	-22.5	7.5	3.75	15	71.25
474	206.25	206.25	-75	-7.5	22.5	18.75	26.25	82.5
475	183.75	210	-67.5	7.5	37.5	33.75	41.25	93.75
476	198.75	210	-78.75	0	26.25	22.5	33.75	86.25
477	213.75	206.25	-93.75	-15	15	11.25	22.5	82.5
478	213.75	206.25	-97.5	-18.75	7.5	11.25	22.5	78.75
479	210	206.25	-97.5	-15	11.25	15	26.25	86.25
480	228.75	228.75	-90	-7.5	22.5	22.5	37.5	93.75
481	206.25	225	-86.25	-7.5	22.5	26.25	41.25	101.25
482	183.75	195	-97.5	-18.75	11.25	15	33.75	93.75
483	198.75	183.75	-108.75	-33.75	-3.75	0	18.75	78.75
484	198.75	202.5	-97.5	-22.5	3.75	11.25	30	90
485	210	232.5	-78.75	0	26.25	30	45	105
486	240	251.25	-78.75	0	26.25	26.25	41.25	101.25
487	266.25	281.25	-75	3.75	26.25	26.25	45	108.75
488	277.5	288.75	-78.75	7.5	26.25	26.25	48.75	112.5
489	258.75	251.25	-97.5	-15	7.5	11.25	33.75	97.5
490	258.75	232.5	-108.75	-26.25	-3.75	7.5	30	90
491	262.5	232.5	-108.75	-26.25	0	11.25	33.75	93.75
492	258.75	236.25	-105	-26.25	-3.75	11.25	33.75	93.75
493	217.5	210	-105	-30	-7.5	7.5	33.75	93.75
494	183.75	183.75	-112.5	-41.25	-18.75	0	22.5	86.25
495	221.25	210	-108.75	-45	-18.75	0	22.5	86.25
496	221.25	217.5	-101.25	-33.75	-15	3.75	30	90
497	176.25	191.25	-101.25	-37.5	-18.75	-3.75	22.5	86.25
498	187.5	206.25	-93.75	-30	-15	-3.75	26.25	93.75
499	240	255	-82.5	-18.75	-7.5	7.5	37.5	108.75
500	240	258.75	-86.25	-22.5	-15	0	33.75	105
501	221.25	240	-90	-22.5	-15	-3.75	26.25	97.5
502	277.5	277.5	-86.25	-22.5	-15	-3.75	26.25	101.25
503	303.75	303.75	-75	-15	-11.25	3.75	33.75	108.75
504	255	273.75	-78.75	-22.5	-18.75	-7.5	22.5	101.25
505	221.25	255	-82.5	-26.25	-22.5	-15	15	93.75
506	213.75	232.5	-86.25	-37.5	-33.75	-26.25	0	78.75
507	206.25	206.25	-97.5	-52.5	-48.75	-41.25	-15	60
508	183.75	187.5	-97.5	-52.5	-52.5	-45	-18.75	56.25
509	202.5	206.25	-90	-45	-48.75	-41.25	-11.25	63.75
510	232.5	221.25	-82.5	-37.5	-37.5	-33.75	-3.75	71.25
511	202.5	213.75	-71.25	-26.25	-30	-22.5	3.75	78.75
512	210	240	-60	-11.25	-18.75	-15	11.25	86.25
513	247.5	262.5	-67.5	-18.75	-30	-22.5	3.75	78.75
514	232.5	247.5	-71.25	-26.25	-33.75	-30	-3.75	67.5
515	206.25	225	-67.5	-22.5	-33.75	-30	-7.5	63.75
516	183.75	195	-67.5	-26.25	-37.5	-37.5	-15	56.25
517	165	172.5	-67.5	-30	-45	-45	-22.5	45
518	165	176.25	-63.75	-33.75	-48.75	-48.75	-26.25	37.5
519	157.5	168.75	-60	-33.75	-48.75	-48.75	-30	33.75
520	138.75	176.25	-41.25	-18.75	-33.75	-37.5	-18.75	45
521	146.25	195	-30	-7.5	-26.25	-30	-15	48.75
522	168.75	210	-22.5	-3.75	-22.5	-30	-15	45
523	161.25	213.75	-18.75	-3.75	-22.5	-33.75	-18.75	45
524	135	195	-22.5	-3.75	-26.25	-37.5	-22.5	41.25
525	116.25	157.5	-41.25	-22.5	-41.25	-52.5	-41.25	22.5
526	116.25	146.25	-45	-33.75	-48.75	-56.25	-45	15
527	123.75	168.75	-30	-18.75	-33.75	-45	-33.75	26.25
528	127.5	176.25	-26.25	-18.75	-33.75	-41.25	-33.75	26.25
529	112.5	150	-37.5	-37.5	-48.75	-56.25	-52.5	7.5
530	93.75	127.5	-41.25	-41.25	-60	-63.75	-56.25	0
531	75	101.25	-45	-48.75	-63.75	-67.5	-67.5	-11.25
532	60	108.75	-30	-37.5	-45	-56.25	-56.25	0
533	52.5	131.25	-15	-26.25	-37.5	-45	-45	7.5
534	82.5	135	-15	-30	-41.25	-52.5	-48.75	3.75
535	78.75	120	-22.5	-33.75	-45	-60	-60	-7.5
536	41.25	112.5	-22.5	-33.75	-45	-60	-56.25	-3.75
537	60	131.25	-15	-30	-37.5	-52.5	-48.75	3.75
538	105	150	-18.75	-33.75	-41.25	-56.25	-56.25	0
539	67.5	112.5	-30	-48.75	-56.25	-71.25	-71.25	-18.75
540	-3.75	63.75	-41.25	-63.75	-71.25	-86.25	-90	-33.75
541	7.5	71.25	-33.75	-63.75	-67.5	-82.5	-86.25	-30
542	26.25	75	-33.75	-67.5	-71.25	-86.25	-86.25	-33.75
543	15	63.75	-33.75	-71.25	-75	-86.25	-86.25	-37.5
544	37.5	93.75	-22.5	-60	-60	-75	-78.75	-26.25
545	26.25	97.5	-15	-56.25	-56.25	-71.25	-71.25	-26.25
546	-15	60	-26.25	-67.5	-67.5	-82.5	-82.5	-37.5
547	-7.5	56.25	-30	-71.25	-75	-86.25	-86.25	-41.25
548	11.25	75	-26.25	-67.5	-71.25	-82.5	-82.5	-37.5
549	18.75	86.25	-30	-75	-75	-82.5	-86.25	-41.25
550	41.25	112.5	-30	-71.25	-67.5	-78.75	-78.75	-33.75
551	52.5	127.5	-22.5	-67.5	-63.75	-71.25	-71.25	-22.5
552	45	123.75	-15	-63.75	-60	-67.5	-67.5	-18.75
553	63.75	131.25	-15	-67.5	-60	-71.25	-67.5	-18.75
554	78.75	112.5	-30	-86.25	-75	-82.5	-78.75	-33.75
555	26.25	52.5	-48.75	-108.75	-97.5	-105	-105	-60
556	-33.75	30	-41.25	-105	-93.75	-105	-108.75	-60
557	-48.75	30	-37.5	-97.5	-90	-101.25	-105	-56.25
558	-52.5	33.75	-33.75	-93.75	-86.25	-101.25	-101.25	-56.25
559	-22.5	63.75	-26.25	-82.5	-75	-90	-90	-45
560	3.75	63.75	-37.5	-93.75	-86.25	-101.25	-101.25	-52.5
561	15	67.5	-45	-101.25	-93.75	-105	-105	-60
562	7.5	67.5	-37.5	-93.75	-86.25	-101.25	-97.5	-52.5
563	15	75	-30	-90	-78.75	-93.75	-90	-45
564	33.75	90	-26.25	-86.25	-75	-86.25	-86.25	-41.25
565	33.75	86.25	-30	-90	-78.75	-90	-90	-45
566	22.5	71.25	-33.75	-97.5	-86.25	-97.5	-97.5	-52.5
567	18.75	71.25	-26.25	-90	-78.75	-90	-90	-45
568	7.5	78.75	-22.5	-82.5	-71.25	-86.25	-86.25	-41.25
569	-26.25	45	-33.75	-97.5	-86.25	-97.5	-101.25	-52.5
570	-52.5	22.5	-45	-101.25	-90	-105	-105	-60
571	-3.75	78.75	-30	-82.5	-71.25	-90	-90	-45
572	41.25	116.25	-22.5	-78.75	-67.5	-86.25	-86.25	-41.25
573	15	82.5	-37.5	-90	-78.75	-97.5	-93.75	-48.75
574	-11.25	56.25	-41.25	-90	-78.75	-97.5	-93.75	-45
575	-11.25	60	-33.75	-82.5	-75	-93.75	-93.75	-41.25
576	11.25	71.25	-33.75	-82.5	-75	-93.75	-90	-37.5
577	7.5	75	-33.75	-82.5	-75	-86.25	-86.25	-37.5
578	-52.5	60	-18.75	-71.25	-63.75	-71.25	-71.25	-26.25
579	-56.25	48.75	-22.5	-78.75	-63.75	-71.25	-75	-30
580	11.25	63.75	-30	-82.5	-71.25	-75	-78.75	-41.25
581	41.25	82.5	-30	-78.75	-67.5	-78.75	-78.75	-41.25
582	30	90	-26.25	-75	-67.5	-78.75	-78.75	-41.25
583	0	97.5	-15	-63.75	-56.25	-67.5	-67.5	-26.25
584	0	101.25	-11.25	-56.25	-45	-60	-60	-18.75
585	30	90	-30	-75	-63.75	-75	-78.75	-37.5
586	52.5	93.75	-33.75	-78.75	-67.5	-78.75	-78.75	-37.5
587	63.75	112.5	-30	-75	-63.75	-71.25	-75	-30
588	45	105	-37.5	-82.5	-75	-78.75	-82.5	-37.5
589	18.75	86.25	-41.25	-90	-75	-86.25	-86.25	-45
590	-11.25	63.75	-45	-93.75	-75	-90	-90	-48.75
591	-22.5	71.25	-37.5	-86.25	-71.25	-82.5	-86.25	-45
592	-7.5	82.5	-33.75	-86.25	-75	-82.5	-86.25	-45
593	0	67.5	-45	-93.75	-78.75	-90	-93.75	-52.5
594	0	67.5	-45	-86.25	-75	-86.25	-90	-48.75
595	7.5	78.75	-41.25	-78.75	-71.25	-82.5	-86.25	-45
596	-7.5	60	-45	-78.75	-67.5	-82.5	-86.25	-45
597	-7.5	48.75	-52.5	-86.25	-71.25	-82.5	-86.25	-48.75
598	-11.25	48.75	-52.5	-90	-78.75	-86.25	-90	-48.75
599	0	75	-45	-78.75	-71.25	-78.75	-82.5	-37.5
600	26.25	105	-41.25	-71.25	-60	-71.25	-75	-30
601	37.5	105	-45	-78.75	-60	-71.25	-75	-33.75
602	30	90	-41.25	-78.75	-63.75	-71.25	-75	-33.75
603	15	90	-33.75	-71.25	-56.25	-63.75	-71.25	-30
604	26.25	108.75	-26.25	-63.75	-48.75	-56.25	-63.75	-22.5
605	41.25	112.5	-30	-67.5	-52.5	-67.5	-71.25	-30
606	26.25	116.25	-26.25	-60	-52.5	-63.75	-67.5	-26.25
607	0	108.75	-26.25	-56.25	-48.75	-63.75	-67.5	-26.25
608	18.75	93.75	-45	-75	-63.75	-78.75	-82.5	-37.5
609	41.25	90	-56.25	-90	-78.75	-90	-93.75	-48.75
610	41.25	93.75	-56.25	-90	-78.75	-86.25	-90	-45
611	48.75	108.75	-52.5	-82.5	-71.25	-78.75	-82.5	-37.5
612	33.75	105	-48.75	-78.75	-67.5	-75	-78.75	-37.5
613	18.75	93.75	-48.75	-78.75	-67.5	-75	-78.75	-37.5
614	7.5	75	-52.5	-86.25	-71.25	-78.75	-82.5	-41.25
615	0	71.25	-45	-78.75	-63.75	-71.25	-71.25	-33.75
616	18.75	93.75	-33.75	-71.25	-60	-63.75	-67.5	-26.25
617	26.25	97.5	-37.5	-75	-60	-71.25	-71.25	-30
618	26.25	101.25	-41.25	-75	-60	-71.25	-71.25	-30
619	41.25	116.25	-41.25	-71.25	-60	-71.25	-67.5	-26.25
620	18.75	105	-48.75	-78.75	-63.75	-71.25	-71.25	-30
621	-22.5	82.5	-52.5	-82.5	-67.5	-75	-75	-33.75
622	-7.5	101.25	-41.25	-75	-60	-67.5	-67.5	-22.5
623	22.5	112.5	-41.25	-71.25	-60	-63.75	-67.5	-26.25
624	18.75	93.75	-56.25	-86.25	-71.25	-78.75	-78.75	-37.5
625	30	90	-63.75	-97.5	-82.5	-86.25	-90	-48.75
626	26.25	82.5	-67.5	-105	-90	-93.75	-93.75	-56.25
627	7.5	82.5	-56.25	-101.25	-86.25	-90	-86.25	-52.5
628	-15	67.5	-56.25	-101.25	-86.25	-90	-90	-52.5
629	-37.5	52.5	-56.25	-97.5	-86.25	-90	-90	-56.25
630	-3.75	82.5	-48.75	-86.25	-75	-82.5	-82.5	-45
631	45	116.25	-48.75	-86.25	-78.75	-82.5	-82.5	-45
632	33.75	108.75	-56.25	-93.75	-86.25	-90	-86.25	-45
633	-18.75	71.25	-67.5	-101.25	-90	-97.5	-97.5	-56.25
634	-15	82.5	-60	-93.75	-82.5	-90	-86.25	-48.75
635	26.25	108.75	-56.25	-93.75	-82.5	-82.5	-82.5	-41.25
636	30	101.25	-63.75	-101.25	-90	-90	-90	-48.75
637	7.5	71.25	-75	-120	-105	-105	-105	-63.75
638	0	52.5	-82.5	-127.5	-116.25	-116.25	-112.5	-71.25
639	-3.75	71.25	-60	-108.75	-93.75	-93.75	-93.75	-52.5
640	-33.75	75	-45	-97.5	-82.5	-86.25	-82.5	-41.25
641	-7.5	67.5	-60	-108.75	-97.5	-105	-101.25	-56.25
642	52.5	90	-63.75	-116.25	-105	-112.5	-112.5	-63.75
643	41.25	101.25	-60	-108.75	-97.5	-105	-101.25	-52.5
644	22.5	90	-67.5	-112.5	-101.25	-105	-97.5	-52.5
645	26.25	90	-71.25	-120	-108.75	-108.75	-105	-63.75
646	11.25	90	-63.75	-108.75	-97.5	-93.75	-93.75	-56.25
647	0	82.5	-67.5	-116.25	-101.25	-97.5	-93.75	-56.25
648	0	78.75	-67.5	-116.25	-101.25	-101.25	-97.5	-56.25
649	37.5	97.5	-60	-116.25	-97.5	-97.5	-93.75	-52.5
650	67.5	116.25	-56.25	-112.5	-97.5	-97.5	-93.75	-52.5
651	18.75	78.75	-63.75	-123.75	-112.5	-108.75	-105	-63.75
652	-63.75	15	-82.5	-142.5	-131.25	-131.25	-123.75	-82.5
653	-75	7.5	-86.25	-142.5	-131.25	-135	-127.5	-86.25
654	-37.5	60	-63.75	-116.25	-105	-105	-101.25	-60
655	-22.5	108.75	-37.5	-82.5	-75	-75	-71.25	-30
656	-15	101.25	-45	-90	-86.25	-86.25	-82.5	-41.25
657	-3.75	71.25	-71.25	-120	-112.5	-112.5	-108.75	-63.75
658	11.25	75	-75	-127.5	-116.25	-116.25	-112.5	-63.75
659	3.75	82.5	-67.5	-116.25	-108.75	-105	-101.25	-56.25
660	7.5	82.5	-67.5	-120	-112.5	-108.75	-105	-60
661	26.25	78.75	-75	-131.25	-120	-116.25	-112.5	-67.5
662	3.75	56.25	-75	-131.25	-120	-116.25	-116.25	-71.25
663	-22.5	56.25	-60	-120	-108.75	-105	-105	-60
664	-41.25	71.25	-48.75	-105	-97.5	-93.75	-90	-45
665	-63.75	60	-48.75	-101.25	-93.75	-86.25	-86.25	-41.25
666	-45	60	-56.25	-105	-97.5	-93.75	-93.75	-48.75
667	22.5	82.5	-67.5	-116.25	-112.5	-112.5	-108.75	-63.75
668	56.25	90	-78.75	-123.75	-120	-120	-120	-67.5
669	30	82.5	-75	-123.75	-116.25	-116.25	-116.25	-67.5
670	11.25	90	-63.75	-112.5	-105	-105	-105	-56.25
671	15	101.25	-60	-112.5	-105	-105	-105	-56.25
672	18.75	116.25	-45	-97.5	-93.75	-93.75	-93.75	-45
673	3.75	112.5	-41.25	-97.5	-90	-90	-90	-41.25
674	-18.75	86.25	-45	-105	-97.5	-97.5	-97.5	-48.75
675	-33.75	75	-45	-108.75	-101.25	-101.25	-101.25	-56.25
676	-33.75	86.25	-33.75	-97.5	-90	-93.75	-93.75	-48.75
677	-15	112.5	-18.75	-82.5	-75	-78.75	-78.75	-37.5
678	15	142.5	-7.5	-67.5	-63.75	-67.5	-67.5	-26.25
679	11.25	146.25	-3.75	-60	-60	-63.75	-63.75	-22.5
680	15	138.75	-3.75	-60	-63.75	-71.25	-67.5	-22.5
681	48.75	150	3.75	-60	-56.25	-60	-63.75	-18.75
682	48.75	146.25	0	-60	-60	-63.75	-63.75	-26.25
683	18.75	120	-11.25	-67.5	-71.25	-71.25	-75	-37.5
684	-11.25	97.5	-15	-71.25	-71.25	-78.75	-82.5	-45
685	-7.5	108.75	-3.75	-63.75	-63.75	-71.25	-71.25	-33.75
686	15	120	3.75	-60	-60	-67.5	-67.5	-30
687	26.25	127.5	3.75	-56.25	-56.25	-63.75	-67.5	-30
688	48.75	176.25	30	-33.75	-37.5	-45	-45	-11.25
689	45	206.25	41.25	-22.5	-26.25	-33.75	-37.5	-3.75
690	0	172.5	26.25	-33.75	-37.5	-48.75	-48.75	-15
691	0	150	0	-48.75	-52.5	-63.75	-63.75	-22.5
692	11.25	150	-15	-56.25	-56.25	-63.75	-60	-18.75
693	0	150	-15	-52.5	-45	-52.5	-48.75	-7.5
694	22.5	161.25	-18.75	-48.75	-41.25	-45	-41.25	-3.75
695	56.25	161.25	-41.25	-63.75	-48.75	-52.5	-48.75	-7.5
696	45	127.5	-71.25	-86.25	-71.25	-71.25	-63.75	-22.5
697	48.75	123.75	-82.5	-97.5	-78.75	-75	-67.5	-30
698	48.75	135	-78.75	-93.75	-71.25	-67.5	-63.75	-22.5
699	18.75	127.5	-67.5	-82.5	-63.75	-60	-56.25	-15
700	15	127.5	-71.25	-86.25	-63.75	-60	-52.5	-15
701	33.75	131.25	-82.5	-101.25	-78.75	-71.25	-63.75	-26.25
702	56.25	153.75	-86.25	-105	-82.5	-78.75	-67.5	-22.5
703	63.75	172.5	-82.5	-93.75	-75	-71.25	-60	-15
704	63.75	153.75	-93.75	-105	-90	-86.25	-75	-30
705	75	142.5	-93.75	-116.25	-97.5	-93.75	-78.75	-33.75
706	93.75	161.25	-82.5	-105	-86.25	-78.75	-67.5	-18.75
707	93.75	165	-71.25	-97.5	-78.75	-71.25	-60	-11.25
708	63.75	127.5	-75	-108.75	-86.25	-78.75	-67.5	-22.5
709	3.75	56.25	-97.5	-135	-108.75	-105	-97.5	-52.5
710	-7.5	37.5	-101.25	-142.5	-116.25	-112.5	-101.25	-60
711	-7.5	67.5	-82.5	-123.75	-101.25	-93.75	-86.25	-45
712	-11.25	97.5	-60	-105	-86.25	-78.75	-71.25	-30
713	3.75	97.5	-60	-108.75	-90	-86.25	-75	-37.5
714	52.5	108.75	-71.25	-120	-101.25	-97.5	-90	-48.75
715	56.25	120	-67.5	-112.5	-97.5	-93.75	-86.25	-41.25
716	30	116.25	-60	-108.75	-93.75	-90	-82.5	-37.5
717	18.75	112.5	-63.75	-120	-101.25	-97.5	-86.25	-41.25
718	-7.5	101.25	-63.75	-120	-101.25	-101.25	-90	-41.25
719	-26.25	75	-71.25	-127.5	-112.5	-112.5	-101.25	-52.5
720	-41.25	33.75	-93.75	-150	-135	-135	-127.5	-78.75
721	-45	22.5	-97.5	-157.5	-138.75	-138.75	-131.25	-82.5
722	-41.25	30	-86.25	-153.75	-135	-135	-127.5	-78.75
723	-48.75	33.75	-78.75	-150	-135	-135	-127.5	-78.75
724	-41.25	37.5	-78.75	-150	-135	-138.75	-127.5	-82.5
725	-30	45	-82.5	-150	-135	-135	-127.5	-82.5
726	-3.75	82.5	-78.75	-138.75	-123.75	-123.75	-112.5	-67.5
727	15	120	-63.75	-120	-105	-108.75	-97.5	-52.5
728	-18.75	82.5	-71.25	-131.25	-116.25	-120	-108.75	-60
729	-52.5	26.25	-97.5	-157.5	-138.75	-142.5	-131.25	-82.5
730	-33.75	30	-101.25	-161.25	-142.5	-142.5	-131.25	-82.5
731	-7.5	60	-90	-150	-131.25	-131.25	-120	-71.25
732	-7.5	71.25	-82.5	-142.5	-123.75	-131.25	-120	-63.75
733	-7.5	63.75	-82.5	-146.25	-127.5	-135	-123.75	-67.5
734	-18.75	45	-90	-157.5	-138.75	-142.5	-131.25	-75
735	-48.75	26.25	-86.25	-153.75	-138.75	-138.75	-127.5	-78.75
736	-60	18.75	-90	-153.75	-135	-138.75	-127.5	-82.5
737	-67.5	30	-75	-142.5	-123.75	-123.75	-116.25	-71.25
738	-78.75	41.25	-63.75	-127.5	-116.25	-116.25	-105	-56.25
739	-48.75	52.5	-71.25	-131.25	-116.25	-123.75	-112.5	-60
740	3.75	71.25	-78.75	-138.75	-120	-127.5	-116.25	-67.5
741	-3.75	67.5	-82.5	-142.5	-127.5	-131.25	-120	-71.25
742	-37.5	37.5	-93.75	-153.75	-135	-138.75	-127.5	-78.75
743	-15	48.75	-97.5	-153.75	-138.75	-142.5	-127.5	-78.75
744	-30	63.75	-78.75	-135	-120	-123.75	-112.5	-63.75
745	-67.5	37.5	-75	-135	-120	-123.75	-112.5	-67.5
746	-26.25	33.75	-71.25	-138.75	-127.5	-135	-123.75	-82.5
747	-18.75	37.5	-45	-112.5	-116.25	-135	-131.25	-90
748	-41.25	22.5	-11.25	-75	-108.75	-142.5	-146.25	-108.75
749	-41.25	-3.75	30	-37.5	-101.25	-161.25	-172.5	-138.75
750	-15	0	78.75	7.5	-93.75	-176.25	-195	-161.25
751	-18.75	-3.75	120	41.25	-93.75	-191.25	-213.75	-180
752	-30	-11.25	142.5	67.5	-90	-202.5	-228.75	-195
753	-15	22.5	183.75	131.25	-41.25	-165	-198.75	-172.5
754	11.25	71.25	225	206.25	26.25	-108.75	-153.75	-127.5
755	71.25	112.5	243.75	266.25	78.75	-63.75	-116.25	-97.5
756	131.25	150	255	315	131.25	-15	-67.5	-56.25
757	176.25	187.5	255	348.75	176.25	37.5	-18.75	-11.25
758	247.5	255	258.75	386.25	225	97.5	45	48.75
759	345	356.25	258.75	446.25	300	180	135	131.25
760	431.25	457.5	247.5	498.75	386.25	285	243.75	243.75
761	483.75	558.75	217.5	525	465	390	356.25	352.5
762	543.75	682.5	172.5	532.5	543.75	506.25	487.5	483.75
763	641.25	828.75	123.75	547.5	633.75	633.75	626.25	622.5
764	723.75	1012.5	127.5	630	776.25	806.25	806.25	791.25
765	780	1203.75	86.25	656.25	888.75	971.25	990	982.5
766	810	1383.75	-37.5	600	960	1125	1173.75	1181.25
767	885	1530	-153.75	543.75	1023.75	1260	1342.5	1350
768	960	1571.25	-273.75	431.25	1031.25	1342.5	1447.5	1455
769	930	1552.5	-378.75	303.75	1020	1398.75	1526.25	1530
770	828.75	1507.5	-382.5	300	1080	1485	1601.25	1575
771	765	1462.5	-348.75	326.25	1155	1556.25	1642.5	1582.5
772	701.25	1425	-363.75	258.75	1158.75	1575	1650	1567.5
773	592.5	1353.75	-393.75	138.75	1087.5	1515	1586.25	1503.75
774	476.25	1230	-401.25	18.75	960	1361.25	1428.75	1353.75
775	352.5	1057.5	-371.25	-86.25	787.5	1125	1185	1132.5
776	198.75	858.75	-348.75	-206.25	566.25	847.5	907.5	900
777	82.5	705	-363.75	-356.25	315	562.5	645	690
778	-18.75	570	-382.5	-506.25	86.25	311.25	416.25	502.5
779	-105	442.5	-378.75	-588.75	-67.5	138.75	240	345
780	-165	330	-348.75	-577.5	-120	45	116.25	210
781	-180	232.5	-333.75	-547.5	-135	-11.25	33.75	105
782	-172.5	153.75	-356.25	-540	-157.5	-52.5	-18.75	37.5
783	-168.75	123.75	-363.75	-498.75	-142.5	-48.75	-22.5	22.5
784	-157.5	116.25	-356.25	-457.5	-138.75	-48.75	-22.5	18.75
785	-161.25	93.75	-337.5	-431.25	-161.25	-71.25	-33.75	15
786	-187.5	90	-296.25	-375	-153.75	-71.25	-30	30
787	-138.75	112.5	-262.5	-322.5	-131.25	-63.75	-22.5	37.5
788	-45	135	-258.75	-292.5	-127.5	-67.5	-30	26.25
789	-11.25	161.25	-236.25	-240	-90	-45	-15	41.25
790	37.5	210	-183.75	-157.5	-30	0	22.5	71.25
791	75	236.25	-138.75	-101.25	11.25	26.25	41.25	86.25
792	67.5	221.25	-112.5	-82.5	15	26.25	33.75	75
793	63.75	191.25	-105	-82.5	7.5	11.25	15	52.5
794	37.5	146.25	-101.25	-86.25	-3.75	-7.5	-3.75	30
795	11.25	120	-90	-78.75	-3.75	-15	-11.25	18.75
796	18.75	123.75	-78.75	-71.25	-7.5	-18.75	-15	15
797	26.25	135	-71.25	-67.5	-11.25	-22.5	-22.5	11.25
798	41.25	161.25	-52.5	-52.5	0	-15	-11.25	22.5
799	63.75	180	-48.75	-41.25	3.75	-15	-11.25	22.5
800	52.5	161.25	-52.5	-52.5	-7.5	-22.5	-18.75	15
801	33.75	150	-52.5	-52.5	-15	-30	-22.5	15
802	56.25	161.25	-52.5	-52.5	-18.75	-33.75	-26.25	11.25
803	52.5	135	-63.75	-71.25	-37.5	-52.5	-45	-7.5
804	22.5	86.25	-82.5	-90	-60	-75	-71.25	-30
805	0	63.75	-90	-97.5	-71.25	-86.25	-78.75	-37.5
806	-3.75	67.5	-82.5	-93.75	-67.5	-82.5	-78.75	-33.75
807	7.5	93.75	-60	-75	-48.75	-63.75	-60	-18.75
808	26.25	112.5	-48.75	-67.5	-41.25	-56.25	-52.5	-11.25
809	7.5	86.25	-60	-75	-52.5	-71.25	-71.25	-26.25
810	7.5	93.75	-60	-67.5	-48.75	-75	-67.5	-18.75
811	37.5	131.25	-52.5	-56.25	-41.25	-63.75	-56.25	-3.75
812	33.75	127.5	-56.25	-63.75	-45	-63.75	-56.25	-7.5
813	52.5	123.75	-60	-67.5	-48.75	-60	-56.25	-11.25
814	75	135	-56.25	-60	-41.25	-48.75	-48.75	-3.75
815	56.25	131.25	-48.75	-52.5	-33.75	-41.25	-41.25	3.75
816	56.25	116.25	-56.25	-63.75	-41.25	-52.5	-48.75	-3.75
817	63.75	105	-63.75	-75	-52.5	-63.75	-60	-11.25
818	15	71.25	-71.25	-82.5	-60	-71.25	-67.5	-22.5
819	-22.5	56.25	-71.25	-78.75	-60	-67.5	-63.75	-22.5
820	15	90	-67.5	-71.25	-56.25	-67.5	-56.25	-15
821	15	93.75	-63.75	-63.75	-45	-60	-56.25	-11.25
822	18.75	101.25	-56.25	-48.75	-33.75	-52.5	-45	0
823	78.75	146.25	-45	-33.75	-22.5	-41.25	-33.75	11.25
824	97.5	153.75	-52.5	-41.25	-26.25	-45	-37.5	7.5
825	75	142.5	-56.25	-45	-30	-45	-37.5	7.5
826	78.75	153.75	-48.75	-37.5	-22.5	-37.5	-30	18.75
827	75	135	-63.75	-48.75	-30	-45	-41.25	7.5
828	71.25	116.25	-67.5	-52.5	-37.5	-52.5	-45	0
829	105	142.5	-60	-45	-30	-45	-37.5	7.5
830	108.75	168.75	-41.25	-33.75	-11.25	-26.25	-22.5	22.5
831	63.75	165	-26.25	-15	3.75	-7.5	-7.5	41.25
832	75	165	-30	-18.75	-3.75	-15	-11.25	33.75
833	120	176.25	-45	-30	-15	-26.25	-22.5	22.5
834	93.75	157.5	-52.5	-30	-18.75	-30	-26.25	18.75
835	75	146.25	-56.25	-30	-15	-30	-26.25	22.5
836	90	150	-63.75	-33.75	-18.75	-30	-26.25	22.5
837	82.5	135	-67.5	-37.5	-22.5	-33.75	-30	18.75
838	86.25	138.75	-63.75	-37.5	-22.5	-33.75	-26.25	22.5
839	105	157.5	-63.75	-37.5	-18.75	-30	-26.25	26.25
840	97.5	150	-63.75	-33.75	-15	-26.25	-22.5	30
841	90	131.25	-71.25	-41.25	-22.5	-33.75	-30	22.5
842	101.25	127.5	-75	-41.25	-26.25	-37.5	-33.75	15
843	120	146.25	-67.5	-33.75	-15	-26.25	-22.5	26.25
844	131.25	176.25	-52.5	-18.75	-3.75	-11.25	-11.25	41.25
845	138.75	187.5	-52.5	-18.75	-3.75	-11.25	-11.25	41.25
846	116.25	172.5	-63.75	-18.75	-3.75	-18.75	-15	37.5
847	86.25	153.75	-67.5	-15	0	-15	-11.25	41.25
848	93.75	157.5	-67.5	-15	3.75	-7.5	-3.75	48.75
849	120	168.75	-71.25	-15	3.75	-3.75	0	52.5
850	138.75	180	-67.5	-15	7.5	0	3.75	56.25
851	142.5	195	-56.25	0	22.5	15	15	67.5
852	120	180	-56.25	0	18.75	11.25	15	67.5
853	135	168.75	-63.75	-7.5	11.25	7.5	11.25	60
854	168.75	180	-63.75	-11.25	15	7.5	11.25	60
855	161.25	183.75	-60	-7.5	15	7.5	15	63.75
856	105	157.5	-63.75	-3.75	15	7.5	11.25	60
857	105	161.25	-60	0	18.75	7.5	15	63.75
858	142.5	195	-56.25	11.25	30	18.75	22.5	75
859	150	206.25	-56.25	15	33.75	22.5	26.25	82.5
860	146.25	195	-67.5	7.5	26.25	18.75	22.5	78.75
861	138.75	180	-75	0	18.75	15	18.75	75
862	165	191.25	-78.75	0	22.5	18.75	26.25	82.5
863	183.75	202.5	-78.75	0	26.25	18.75	26.25	82.5
864	165	191.25	-78.75	0	26.25	18.75	26.25	82.5
865	150	176.25	-78.75	-3.75	22.5	18.75	22.5	78.75
866	172.5	187.5	-78.75	-7.5	22.5	18.75	26.25	82.5
867	206.25	225	-71.25	3.75	33.75	30	37.5	93.75
868	225	247.5	-63.75	11.25	41.25	33.75	45	101.25
869	225	240	-75	3.75	33.75	26.25	37.5	93.75
870	217.5	251.25	-67.5	18.75	41.25	37.5	52.5	105
871	217.5	270	-60	26.25	48.75	45	56.25	116.25
872	202.5	236.25	-78.75	11.25	33.75	30	45	101.25
873	176.25	187.5	-101.25	-11.25	11.25	11.25	22.5	82.5
874	161.25	183.75	-105	-15	7.5	7.5	22.5	82.5
875	172.5	213.75	-93.75	-3.75	18.75	18.75	37.5	97.5
876	191.25	232.5	-82.5	3.75	26.25	30	48.75	105
877	183.75	217.5	-93.75	-11.25	11.25	22.5	41.25	101.25
878	198.75	217.5	-93.75	-11.25	11.25	22.5	41.25	101.25
879	232.5	236.25	-90	-3.75	18.75	26.25	45	101.25
880	206.25	228.75	-82.5	0	22.5	26.25	48.75	105
881	202.5	232.5	-78.75	3.75	26.25	30	52.5	108.75
882	262.5	281.25	-71.25	15	33.75	37.5	60	120
883	255	270	-78.75	11.25	26.25	30	56.25	116.25
884	221.25	240	-86.25	0	18.75	22.5	48.75	112.5
885	232.5	251.25	-90	0	15	22.5	48.75	112.5
886	247.5	258.75	-93.75	-3.75	11.25	18.75	45	112.5
887	243.75	243.75	-105	-18.75	0	7.5	30	97.5
888	240	236.25	-108.75	-26.25	-11.25	-3.75	22.5	90
889	251.25	255	-97.5	-22.5	-7.5	3.75	30	97.5
890	262.5	270	-93.75	-18.75	-7.5	3.75	33.75	105
891	247.5	258.75	-86.25	-15	-3.75	7.5	33.75	105
892	236.25	247.5	-86.25	-18.75	-3.75	3.75	30	97.5
893	225	243.75	-86.25	-18.75	-11.25	0	26.25	97.5
894	221.25	255	-86.25	-15	-11.25	0	30	101.25
895	240	270	-86.25	-11.25	-11.25	-7.5	26.25	97.5
896	232.5	243.75	-97.5	-22.5	-18.75	-18.75	11.25	90
897	221.25	225	-97.5	-26.25	-26.25	-18.75	11.25	90
898	255	258.75	-82.5	-15	-15	-7.5	30	101.25
899	258.75	281.25	-63.75	0	0	11.25	45	116.25
900	232.5	273.75	-60	3.75	3.75	15	48.75	116.25
901	225	247.5	-71.25	-11.25	-11.25	3.75	33.75	101.25
902	221.25	217.5	-86.25	-30	-33.75	-18.75	15	78.75
903	195	206.25	-82.5	-30	-30	-22.5	7.5	75
904	180	210	-67.5	-15	-22.5	-18.75	11.25	78.75
905	206.25	232.5	-52.5	-3.75	-11.25	-11.25	18.75	86.25
906	217.5	251.25	-45	7.5	-3.75	-3.75	22.5	90
907	198.75	243.75	-45	7.5	-7.5	-11.25	18.75	86.25
908	195	240	-45	7.5	-7.5	-11.25	15	82.5
909	213.75	247.5	-41.25	11.25	-7.5	-7.5	15	82.5
910	221.25	251.25	-37.5	11.25	-7.5	-11.25	11.25	75
911	206.25	228.75	-45	0	-18.75	-22.5	0	63.75
912	168.75	183.75	-56.25	-15	-33.75	-37.5	-18.75	45
913	138.75	161.25	-52.5	-15	-33.75	-41.25	-22.5	37.5
914	108.75	150	-41.25	-11.25	-30	-37.5	-22.5	37.5
915	86.25	150	-30	-3.75	-22.5	-30	-18.75	37.5
916	97.5	168.75	-18.75	3.75	-18.75	-26.25	-15	41.25
917	135	180	-18.75	3.75	-18.75	-30	-18.75	33.75
918	168.75	198.75	-18.75	7.5	-15	-33.75	-22.5	30
919	161.25	210	-11.25	15	-7.5	-26.25	-15	37.5
920	120	180	-18.75	3.75	-18.75	-33.75	-26.25	30
921	101.25	157.5	-22.5	0	-22.5	-37.5	-30	26.25
922	97.5	150	-18.75	0	-22.5	-37.5	-33.75	22.5
923	86.25	142.5	-22.5	-3.75	-26.25	-45	-37.5	18.75
924	63.75	153.75	-3.75	7.5	-11.25	-26.25	-22.5	30
925	52.5	142.5	0	3.75	-15	-26.25	-22.5	22.5
926	56.25	105	-18.75	-22.5	-37.5	-52.5	-48.75	-3.75
927	82.5	120	-15	-18.75	-37.5	-52.5	-48.75	-3.75
928	93.75	146.25	-3.75	-7.5	-26.25	-45	-41.25	3.75
929	41.25	123.75	0	-3.75	-22.5	-41.25	-41.25	3.75
930	18.75	116.25	0	-3.75	-22.5	-45	-45	0
931	41.25	112.5	-11.25	-15	-37.5	-60	-60	-15
932	48.75	105	-18.75	-26.25	-45	-63.75	-67.5	-22.5
933	48.75	112.5	-15	-26.25	-41.25	-60	-63.75	-18.75
934	63.75	120	-15	-30	-41.25	-56.25	-60	-15
935	75	131.25	-7.5	-26.25	-37.5	-56.25	-60	-15
936	67.5	135	3.75	-18.75	-30	-48.75	-52.5	-11.25
937	48.75	112.5	-3.75	-30	-37.5	-56.25	-63.75	-18.75
938	22.5	86.25	-11.25	-37.5	-45	-63.75	-67.5	-26.25
939	11.25	90	-3.75	-37.5	-41.25	-60	-67.5	-26.25
940	26.25	93.75	-11.25	-41.25	-45	-67.5	-71.25	-30
941	30	93.75	-7.5	-37.5	-41.25	-63.75	-67.5	-26.25
942	-7.5	90	0	-30	-33.75	-60	-63.75	-22.5
943	-30	78.75	-7.5	-37.5	-45	-67.5	-71.25	-26.25
944	37.5	97.5	-18.75	-52.5	-60	-82.5	-82.5	-37.5
945	67.5	123.75	-11.25	-48.75	-52.5	-75	-78.75	-33.75
946	45	127.5	-3.75	-41.25	-45	-63.75	-71.25	-26.25
947	30	112.5	-7.5	-48.75	-48.75	-71.25	-78.75	-30
948	3.75	78.75	-26.25	-67.5	-67.5	-97.5	-101.25	-48.75
949	-22.5	52.5	-33.75	-82.5	-82.5	-108.75	-108.75	-60
950	-30	48.75	-30	-78.75	-82.5	-101.25	-105	-56.25
951	-26.25	52.5	-22.5	-71.25	-71.25	-90	-93.75	-52.5
952	-41.25	41.25	-15	-67.5	-67.5	-90	-93.75	-56.25
953	-63.75	26.25	-18.75	-71.25	-75	-97.5	-101.25	-63.75
954	-52.5	41.25	-15	-63.75	-63.75	-86.25	-90	-48.75
955	-18.75	71.25	-7.5	-56.25	-52.5	-75	-78.75	-37.5
956	-18.75	60	-15	-60	-60	-78.75	-82.5	-41.25
957	-18.75	52.5	-18.75	-63.75	-63.75	-82.5	-82.5	-41.25
958	22.5	90	-11.25	-56.25	-52.5	-71.25	-71.25	-30
959	37.5	108.75	-3.75	-48.75	-45	-63.75	-67.5	-26.25
960	15	86.25	-7.5	-56.25	-52.5	-67.5	-71.25	-33.75
961	-7.5	60	-11.25	-63.75	-60	-75	-78.75	-45
962	-11.25	52.5	-15	-63.75	-60	-75	-78.75	-45
963	-22.5	52.5	-11.25	-60	-56.25	-75	-78.75	-45
964	-26.25	52.5	-15	-63.75	-63.75	-82.5	-82.5	-48.75
965	-15	63.75	-15	-60	-60	-78.75	-82.5	-48.75
966	-15	78.75	-7.5	-48.75	-45	-71.25	-75	-37.5
967	-22.5	82.5	-7.5	-45	-41.25	-71.25	-71.25	-37.5
968	-11.25	82.5	-15	-52.5	-48.75	-78.75	-78.75	-45
969	3.75	86.25	-15	-52.5	-52.5	-75	-78.75	-41.25
970	-7.5	78.75	-18.75	-60	-56.25	-78.75	-82.5	-45
971	-33.75	78.75	-11.25	-48.75	-45	-67.5	-71.25	-33.75
972	-48.75	75	-3.75	-45	-37.5	-60	-63.75	-30
973	-15	63.75	-15	-56.25	-48.75	-71.25	-78.75	-45
974	45	97.5	-11.25	-52.5	-45	-67.5	-75	-45
975	48.75	123.75	0	-37.5	-33.75	-56.25	-63.75	-30
976	-26.25	90	7.5	-30	-26.25	-52.5	-56.25	-26.25
977	-60	71.25	3.75	-30	-26.25	-52.5	-56.25	-26.25
978	22.5	116.25	0	-33.75	-30	-56.25	-60	-30
979	67.5	123.75	-7.5	-41.25	-37.5	-63.75	-67.5	-37.5
980	37.5	105	-11.25	-45	-41.25	-67.5	-75	-37.5
981	22.5	120	0	-33.75	-33.75	-56.25	-63.75	-26.25
982	11.25	105	-15	-45	-41.25	-63.75	-71.25	-37.5
983	11.25	75	-33.75	-63.75	-60	-82.5	-90	-56.25
984	-7.5	60	-33.75	-63.75	-60	-82.5	-90	-60
985	-63.75	33.75	-26.25	-60	-52.5	-75	-82.5	-48.75
986	-52.5	37.5	-22.5	-60	-52.5	-75	-78.75	-48.75
987	7.5	82.5	-11.25	-52.5	-45	-67.5	-75	-45
988	-3.75	90	-11.25	-45	-41.25	-63.75	-75	-41.25
989	-26.25	71.25	-15	-45	-45	-71.25	-78.75	-48.75
990	-15	75	-22.5	-52.5	-48.75	-78.75	-86.25	-48.75
991	3.75	90	-18.75	-48.75	-45	-71.25	-78.75	-41.25
992	7.5	86.25	-22.5	-52.5	-48.75	-75	-78.75	-45
993	7.5	101.25	-15	-41.25	-37.5	-60	-67.5	-33.75
994	11.25	112.5	-7.5	-37.5	-33.75	-52.5	-60	-22.5
995	0	93.75	-15	-48.75	-45	-63.75	-67.5	-30
996	-22.5	78.75	-15	-48.75	-41.25	-63.75	-67.5	-26.25
997	-15	82.5	-11.25	-45	-37.5	-60	-63.75	-26.25
998	15	86.25	-18.75	-56.25	-45	-67.5	-71.25	-33.75
999	7.5	86.25	-18.75	-56.25	-48.75	-67.5	-71.25	-33.75
1000	-3.75	97.5	-7.5	-41.25	-33.75	-56.25	-60	-22.5
1001	11.25	123.75	7.5	-26.25	-15	-41.25	-45	-3.75
1002	7.5	123.75	3.75	-26.25	-18.75	-45	-48.75	-7.5
1003	3.75	97.5	-11.25	-41.25	-33.75	-60	-60	-22.5
1004	3.75	82.5	-26.25	-56.25	-48.75	-71.25	-71.25	-33.75
1005	-7.5	75	-33.75	-63.75	-52.5	-75	-75	-45
1006	0	82.5	-30	-60	-52.5	-71.25	-75	-56.25
1007	11.25	101.25	-18.75	-48.75	-41.25	-63.75	-67.5	-56.25
1008	-3.75	86.25	-22.5	-56.25	-48.75	-71.25	-82.5	-60
1009	-11.25	67.5	-22.5	-60	-52.5	-75	-86.25	-48.75
1010	-18.75	60	-22.5	-63.75	-52.5	-75	-82.5	-48.75
1011	-26.25	63.75	-18.75	-60	-52.5	-71.25	-78.75	-48.75
1012	-30	63.75	-18.75	-56.25	-48.75	-71.25	-75	-45
1013	-7.5	86.25	-11.25	-45	-41.25	-63.75	-71.25	-37.5
1014	37.5	135	-3.75	-33.75	-30	-52.5	-60	-26.25
1015	45	138.75	-7.5	-41.25	-37.5	-56.25	-63.75	-26.25
1016	15	108.75	-18.75	-52.5	-45	-67.5	-71.25	-37.5
1017	-7.5	90	-30	-63.75	-56.25	-75	-78.75	-41.25
1018	-3.75	97.5	-26.25	-60	-52.5	-71.25	-75	-37.5
1019	7.5	105	-22.5	-60	-48.75	-67.5	-75	-37.5
1020	26.25	112.5	-26.25	-63.75	-56.25	-75	-82.5	-41.25
1021	37.5	116.25	-22.5	-67.5	-56.25	-75	-82.5	-41.25
1022	7.5	86.25	-33.75	-78.75	-67.5	-86.25	-90	-52.5
1023	-18.75	63.75	-33.75	-78.75	-71.25	-90	-93.75	-56.25
1024	-11.25	63.75	-37.5	-78.75	-71.25	-93.75	-97.5	-60
1025	-7.5	67.5	-37.5	-75	-71.25	-93.75	-97.5	-60
1026	-11.25	78.75	-33.75	-75	-67.5	-93.75	-97.5	-56.25
1027	-11.25	78.75	-37.5	-78.75	-71.25	-93.75	-97.5	-56.25
1028	-18.75	75	-33.75	-75	-63.75	-86.25	-90	-48.75
1029	-33.75	93.75	-18.75	-60	-52.5	-71.25	-75	-30
1030	-22.5	93.75	-30	-67.5	-60	-78.75	-86.25	-41.25
1031	7.5	82.5	-45	-90	-78.75	-97.5	-101.25	-60
1032	0	67.5	-48.75	-93.75	-82.5	-101.25	-101.25	-63.75
1033	-22.5	56.25	-45	-90	-78.75	-97.5	-97.5	-56.25
1034	-18.75	63.75	-37.5	-90	-78.75	-93.75	-93.75	-56.25
1035	-18.75	56.25	-41.25	-97.5	-82.5	-101.25	-101.25	-63.75
1036	-33.75	48.75	-45	-93.75	-82.5	-105	-105	-67.5
1037	-26.25	71.25	-33.75	-78.75	-71.25	-93.75	-93.75	-56.25
1038	-15	90	-33.75	-75	-67.5	-90	-90	-52.5
1039	-26.25	75	-41.25	-86.25	-78.75	-101.25	-101.25	-56.25
1040	-11.25	78.75	-37.5	-86.25	-75	-97.5	-93.75	-52.5
1041	3.75	93.75	-33.75	-78.75	-71.25	-90	-90	-48.75
1042	0	97.5	-33.75	-78.75	-71.25	-90	-86.25	-45
1043	-3.75	78.75	-41.25	-90	-82.5	-101.25	-101.25	-56.25
1044	15	75	-45	-101.25	-90	-112.5	-112.5	-63.75
1045	7.5	67.5	-45	-101.25	-93.75	-116.25	-116.25	-67.5
1046	-22.5	41.25	-45	-105	-97.5	-120	-116.25	-71.25
1047	-41.25	30	-48.75	-108.75	-97.5	-120	-116.25	-75
1048	-37.5	60	-33.75	-93.75	-82.5	-101.25	-97.5	-60
1049	-22.5	101.25	-15	-67.5	-60	-75	-71.25	-33.75
1050	-3.75	123.75	-11.25	-63.75	-56.25	-75	-71.25	-33.75
1051	15	112.5	-30	-82.5	-71.25	-93.75	-93.75	-52.5
1052	11.25	86.25	-45	-101.25	-90	-112.5	-108.75	-67.5
1053	15	90	-45	-101.25	-90	-112.5	-108.75	-67.5
1054	7.5	93.75	-33.75	-90	-78.75	-101.25	-97.5	-56.25
1055	-18.75	75	-37.5	-93.75	-82.5	-105	-101.25	-56.25
1056	-52.5	33.75	-52.5	-112.5	-101.25	-120	-116.25	-75
1057	-60	15	-52.5	-116.25	-105	-123.75	-120	-78.75
1058	-37.5	37.5	-45	-105	-93.75	-116.25	-112.5	-71.25
1059	-22.5	60	-41.25	-101.25	-93.75	-116.25	-108.75	-71.25
1060	-30	56.25	-45	-101.25	-93.75	-120	-112.5	-75
1061	-45	48.75	-45	-101.25	-93.75	-123.75	-116.25	-78.75
1062	-18.75	78.75	-37.5	-93.75	-86.25	-116.25	-108.75	-71.25
1063	11.25	101.25	-33.75	-90	-82.5	-112.5	-105	-63.75
1064	-15	78.75	-41.25	-101.25	-93.75	-120	-112.5	-71.25
1065	-56.25	48.75	-48.75	-105	-97.5	-123.75	-116.25	-75
1066	-52.5	52.5	-45	-97.5	-90	-116.25	-108.75	-71.25
1067	-30	60	-48.75	-105	-93.75	-123.75	-112.5	-71.25
1068	-33.75	56.25	-48.75	-105	-97.5	-120	-112.5	-71.25
1069	-41.25	48.75	-45	-108.75	-97.5	-123.75	-112.5	-71.25
1070	-15	60	-45	-108.75	-97.5	-123.75	-112.5	-71.25
1071	0	78.75	-41.25	-97.5	-90	-120	-108.75	-67.5
1072	-3.75	75	-33.75	-93.75	-86.25	-116.25	-105	-67.5
1073	-7.5	78.75	-22.5	-78.75	-75	-105	-97.5	-56.25
1074	0	97.5	-18.75	-75	-71.25	-101.25	-93.75	-48.75
1075	3.75	93.75	-33.75	-86.25	-82.5	-116.25	-105	-60
1076	-15	67.5	-45	-101.25	-97.5	-127.5	-116.25	-71.25
1077	-41.25	56.25	-48.75	-101.25	-97.5	-127.5	-116.25	-71.25
1078	-11.25	93.75	-33.75	-86.25	-82.5	-112.5	-105	-56.25
1079	33.75	123.75	-22.5	-78.75	-75	-105	-97.5	-48.75
1080	26.25	108.75	-22.5	-82.5	-78.75	-108.75	-97.5	-52.5
1081	3.75	90	-18.75	-82.5	-78.75	-105	-97.5	-56.25
1082	-33.75	63.75	-15	-78.75	-75	-105	-101.25	-60
1083	-71.25	45	-11.25	-78.75	-75	-108.75	-101.25	-60
1084	-56.25	86.25	11.25	-60	-52.5	-86.25	-82.5	-41.25
1085	15	161.25	37.5	-30	-30	-63.75	-56.25	-18.75
1086	75	206.25	45	-15	-18.75	-56.25	-48.75	-7.5
1087	63.75	187.5	30	-30	-33.75	-67.5	-60	-22.5
1088	-3.75	131.25	22.5	-41.25	-41.25	-78.75	-71.25	-33.75
1089	-45	78.75	7.5	-52.5	-56.25	-90	-86.25	-48.75
1090	-33.75	71.25	3.75	-56.25	-63.75	-97.5	-90	-52.5
1091	-26.25	78.75	11.25	-48.75	-52.5	-86.25	-82.5	-45
1092	-3.75	93.75	22.5	-41.25	-45	-78.75	-78.75	-41.25
1093	3.75	101.25	30	-37.5	-45	-78.75	-75	-41.25
1094	-22.5	97.5	37.5	-37.5	-41.25	-71.25	-67.5	-33.75
1095	-26.25	108.75	41.25	-33.75	-41.25	-67.5	-63.75	-30
1096	-11.25	131.25	48.75	-18.75	-26.25	-56.25	-56.25	-22.5
1097	-3.75	146.25	52.5	-7.5	-11.25	-48.75	-45	-11.25
1098	7.5	168.75	48.75	-3.75	-11.25	-45	-41.25	-3.75
1099	22.5	183.75	33.75	-15	-15	-48.75	-41.25	-3.75
1100	41.25	187.5	22.5	-18.75	-15	-41.25	-37.5	0
1101	56.25	183.75	7.5	-18.75	-11.25	-41.25	-37.5	0
1102	63.75	172.5	-11.25	-30	-22.5	-48.75	-41.25	-3.75
1103	67.5	153.75	-41.25	-56.25	-41.25	-67.5	-60	-18.75
1104	41.25	138.75	-41.25	-56.25	-41.25	-67.5	-60	-18.75
1105	56.25	157.5	-30	-45	-30	-56.25	-48.75	-7.5
1106	108.75	195	-18.75	-33.75	-22.5	-45	-37.5	3.75
1107	90	165	-37.5	-52.5	-37.5	-60	-48.75	-7.5
1108	0	78.75	-71.25	-86.25	-71.25	-90	-75	-33.75
1109	-26.25	71.25	-75	-90	-75	-93.75	-82.5	-37.5
1110	11.25	116.25	-60	-82.5	-67.5	-90	-75	-26.25
1111	26.25	116.25	-60	-86.25	-71.25	-97.5	-82.5	-37.5
1112	15	101.25	-67.5	-97.5	-82.5	-108.75	-97.5	-48.75
1113	26.25	112.5	-63.75	-101.25	-86.25	-108.75	-97.5	-48.75
1114	41.25	112.5	-63.75	-97.5	-82.5	-112.5	-101.25	-48.75
1115	22.5	86.25	-63.75	-101.25	-90	-116.25	-108.75	-56.25
1116	11.25	71.25	-67.5	-116.25	-101.25	-123.75	-112.5	-60
1117	15	75	-56.25	-108.75	-93.75	-112.5	-101.25	-52.5
1118	30	97.5	-37.5	-86.25	-67.5	-93.75	-82.5	-30
1119	26.25	112.5	-22.5	-75	-60	-86.25	-71.25	-26.25
1120	-3.75	97.5	-33.75	-86.25	-75	-97.5	-86.25	-45
1121	-7.5	90	-41.25	-90	-78.75	-105	-93.75	-52.5
1122	-11.25	86.25	-45	-86.25	-78.75	-108.75	-97.5	-52.5
1123	-15	78.75	-48.75	-97.5	-90	-120	-108.75	-63.75
1124	-22.5	71.25	-52.5	-105	-97.5	-127.5	-116.25	-67.5
1125	-30	56.25	-60	-116.25	-108.75	-135	-123.75	-75
1126	-26.25	52.5	-56.25	-116.25	-105	-135	-120	-71.25
1127	-7.5	63.75	-48.75	-105	-97.5	-123.75	-112.5	-67.5
1128	-3.75	67.5	-45	-105	-97.5	-123.75	-112.5	-67.5
1129	-41.25	48.75	-45	-108.75	-97.5	-123.75	-112.5	-67.5
1130	-71.25	18.75	-56.25	-123.75	-112.5	-138.75	-131.25	-82.5
1131	-45	26.25	-60	-131.25	-120	-146.25	-135	-93.75
1132	-33.75	45	-52.5	-116.25	-108.75	-135	-123.75	-82.5
1133	-60	48.75	-45	-101.25	-93.75	-123.75	-112.5	-67.5
1134	-63.75	63.75	-33.75	-90	-82.5	-116.25	-105	-56.25
1135	-41.25	56.25	-52.5	-108.75	-101.25	-131.25	-120	-71.25
1136	-30	26.25	-75	-131.25	-123.75	-150	-138.75	-93.75
1137	-33.75	22.5	-75	-131.25	-123.75	-150	-138.75	-93.75
1138	-30	45	-60	-120	-112.5	-138.75	-127.5	-82.5
1139	-22.5	60	-52.5	-112.5	-105	-127.5	-120	-75
1140	-7.5	71.25	-48.75	-112.5	-101.25	-127.5	-120	-75
1141	-22.5	52.5	-52.5	-123.75	-112.5	-138.75	-127.5	-86.25
1142	-56.25	22.5	-56.25	-123.75	-116.25	-142.5	-135	-86.25
1143	-41.25	30	-52.5	-120	-108.75	-142.5	-131.25	-82.5
1144	-33.75	41.25	-45	-112.5	-101.25	-138.75	-127.5	-75
1145	-71.25	30	-41.25	-108.75	-101.25	-131.25	-120	-71.25
1146	-78.75	26.25	-45	-108.75	-105	-135	-123.75	-75
1147	-45	41.25	-52.5	-108.75	-101.25	-135	-123.75	-78.75
1148	-15	63.75	-48.75	-108.75	-101.25	-127.5	-120	-75
1149	-37.5	52.5	-52.5	-112.5	-105	-131.25	-123.75	-78.75
1150	-60	41.25	-56.25	-116.25	-105	-131.25	-127.5	-82.5
1151	-37.5	56.25	-48.75	-108.75	-97.5	-127.5	-116.25	-71.25
1152	-37.5	33.75	-45	-112.5	-105	-131.25	-123.75	-82.5
1153	-60	-7.5	-45	-116.25	-112.5	-146.25	-138.75	-101.25
1154	-67.5	-26.25	-30	-101.25	-116.25	-157.5	-157.5	-116.25
1155	-86.25	-41.25	7.5	-63.75	-105	-165	-172.5	-138.75
1156	-93.75	-45	60	-15	-90	-172.5	-187.5	-161.25
1157	-71.25	-37.5	120	37.5	-78.75	-180	-202.5	-176.25
1158	-33.75	-30	157.5	75	-75	-195	-221.25	-195
1159	0	-15	183.75	112.5	-52.5	-191.25	-221.25	-198.75
1160	22.5	15	213.75	165	-15	-165	-206.25	-183.75
1161	41.25	67.5	255	240	52.5	-108.75	-157.5	-138.75
1162	67.5	112.5	281.25	311.25	112.5	-56.25	-112.5	-97.5
1163	123.75	157.5	288.75	356.25	161.25	-11.25	-63.75	-56.25
1164	198.75	225	296.25	393.75	213.75	48.75	-7.5	0
1165	255	285	300	435	270	116.25	63.75	67.5
1166	307.5	337.5	288.75	480	333.75	195	150	146.25
1167	405	442.5	266.25	525	416.25	296.25	251.25	247.5
1168	480	558.75	232.5	543.75	487.5	397.5	363.75	356.25
1169	558.75	686.25	183.75	551.25	566.25	513.75	495	487.5
1170	633.75	840	157.5	592.5	678.75	660	656.25	645
1171	663.75	986.25	146.25	656.25	806.25	821.25	817.5	798.75
1172	735	1185	86.25	663.75	903.75	975	997.5	990
1173	836.25	1417.5	-30	618.75	990	1140	1203.75	1207.5
1174	907.5	1541.25	-138.75	562.5	1053.75	1275	1368.75	1372.5
1175	960	1567.5	-266.25	438.75	1050	1350	1466.25	1470
1176	937.5	1571.25	-352.5	330	1053.75	1417.5	1548.75	1548.75
1177	851.25	1522.5	-345	337.5	1121.25	1496.25	1612.5	1578.75
1178	776.25	1455	-322.5	352.5	1177.5	1552.5	1642.5	1571.25
1179	697.5	1425	-333.75	285	1181.25	1571.25	1650	1563.75
1180	603.75	1357.5	-367.5	157.5	1102.5	1496.25	1575	1488.75
1181	502.5	1222.5	-375	26.25	952.5	1320	1395	1320
1182	367.5	1042.5	-333.75	-75	776.25	1080	1143.75	1095
1183	187.5	843.75	-303.75	-187.5	558.75	810	873.75	866.25
1184	7.5	663.75	-318.75	-337.5	311.25	528.75	615	660
1185	-120	502.5	-341.25	-483.75	86.25	281.25	386.25	468.75
1186	-187.5	360	-348.75	-570	-67.5	105	202.5	296.25
1187	-202.5	255	-326.25	-558.75	-112.5	18.75	86.25	165
1188	-187.5	187.5	-315	-528.75	-123.75	-26.25	11.25	67.5
1189	-187.5	138.75	-326.25	-510	-131.25	-52.5	-22.5	22.5
1190	-172.5	138.75	-315	-453.75	-105	-33.75	-11.25	26.25
1191	-153.75	142.5	-300	-405	-93.75	-30	-7.5	33.75
1192	-146.25	112.5	-292.5	-382.5	-123.75	-63.75	-30	18.75
1193	-135	86.25	-277.5	-352.5	-142.5	-90	-48.75	3.75
1194	-116.25	78.75	-258.75	-315	-135	-93.75	-52.5	0
1195	-71.25	105	-236.25	-266.25	-108.75	-75	-41.25	11.25
1196	-30	142.5	-198.75	-202.5	-60	-41.25	-15	33.75
1197	-7.5	165	-157.5	-131.25	-11.25	-3.75	11.25	56.25
1198	18.75	180	-116.25	-78.75	22.5	15	26.25	63.75
1199	18.75	153.75	-97.5	-67.5	22.5	7.5	7.5	45
1200	7.5	120	-86.25	-71.25	11.25	-11.25	-7.5	22.5
1201	22.5	135	-56.25	-48.75	26.25	0	0	26.25
1202	37.5	153.75	-33.75	-22.5	41.25	11.25	7.5	33.75
1203	18.75	131.25	-33.75	-26.25	30	-3.75	-7.5	22.5
1204	7.5	120	-30	-30	18.75	-15	-18.75	11.25
1205	22.5	131.25	-26.25	-22.5	18.75	-18.75	-22.5	7.5
1206	30	135	-26.25	-22.5	11.25	-26.25	-30	0
1207	26.25	123.75	-30	-37.5	-3.75	-41.25	-45	-15
1208	30	123.75	-30	-41.25	-11.25	-45	-48.75	-15
1209	48.75	138.75	-26.25	-33.75	-7.5	-41.25	-41.25	-11.25
1210	48.75	127.5	-22.5	-30	-3.75	-41.25	-45	-11.25
1211	30	90	-33.75	-41.25	-18.75	-56.25	-60	-26.25
1212	11.25	67.5	-33.75	-52.5	-30	-63.75	-67.5	-37.5
1213	-7.5	56.25	-33.75	-52.5	-30	-63.75	-67.5	-37.5
1214	-7.5	52.5	-33.75	-52.5	-33.75	-67.5	-67.5	-37.5
1215	3.75	67.5	-33.75	-48.75	-30	-67.5	-67.5	-37.5
1216	22.5	93.75	-26.25	-41.25	-22.5	-63.75	-63.75	-33.75
1217	33.75	108.75	-18.75	-33.75	-22.5	-63.75	-63.75	-30
1218	26.25	93.75	-30	-45	-37.5	-75	-78.75	-45
1219	-7.5	60	-45	-60	-52.5	-90	-90	-56.25
1220	-37.5	56.25	-33.75	-48.75	-41.25	-78.75	-78.75	-45
1221	-18.75	71.25	-26.25	-41.25	-33.75	-67.5	-71.25	-33.75
1222	-3.75	60	-37.5	-52.5	-41.25	-75	-78.75	-45
1223	0	60	-41.25	-56.25	-45	-78.75	-78.75	-45
1224	41.25	93.75	-26.25	-45	-33.75	-63.75	-63.75	-33.75
1225	67.5	112.5	-18.75	-30	-18.75	-56.25	-56.25	-22.5
1226	52.5	105	-18.75	-26.25	-15	-52.5	-52.5	-22.5
1227	41.25	101.25	-18.75	-26.25	-15	-52.5	-56.25	-22.5
1228	41.25	112.5	-11.25	-15	-7.5	-45	-48.75	-15
1229	56.25	131.25	-11.25	-7.5	-3.75	-41.25	-41.25	-7.5
1230	56.25	116.25	-26.25	-22.5	-15	-52.5	-52.5	-18.75
1231	48.75	97.5	-30	-30	-18.75	-56.25	-52.5	-22.5
1232	45	101.25	-26.25	-22.5	-15	-48.75	-48.75	-22.5
1233	52.5	120	-22.5	-15	-7.5	-41.25	-45	-18.75
1234	75	142.5	-18.75	-11.25	0	-37.5	-37.5	-11.25
1235	90	146.25	-15	-7.5	3.75	-33.75	-33.75	-3.75
1236	60	112.5	-22.5	-18.75	-7.5	-41.25	-41.25	-15
1237	33.75	90	-22.5	-18.75	-7.5	-37.5	-41.25	-11.25
1238	71.25	116.25	-18.75	-11.25	0	-33.75	-33.75	-3.75
1239	78.75	105	-30	-18.75	-3.75	-41.25	-41.25	-11.25
1240	48.75	90	-33.75	-15	-3.75	-41.25	-41.25	-11.25
1241	45	116.25	-18.75	3.75	11.25	-26.25	-30	3.75
1242	33.75	105	-30	-3.75	3.75	-33.75	-33.75	0
1243	52.5	97.5	-41.25	-11.25	-3.75	-41.25	-41.25	-11.25
1244	90	127.5	-30	0	7.5	-33.75	-30	3.75
1245	97.5	142.5	-26.25	3.75	11.25	-26.25	-26.25	7.5
1246	90	146.25	-22.5	7.5	15	-22.5	-22.5	11.25
1247	101.25	146.25	-22.5	7.5	15	-22.5	-22.5	11.25
1248	116.25	123.75	-37.5	-3.75	0	-33.75	-37.5	0
1249	93.75	105	-37.5	-7.5	0	-33.75	-33.75	0
1250	67.5	108.75	-30	3.75	11.25	-26.25	-26.25	7.5
1251	67.5	123.75	-22.5	18.75	22.5	-15	-15	18.75
1252	112.5	161.25	-15	22.5	30	-7.5	-7.5	22.5
1253	161.25	202.5	-11.25	37.5	41.25	0	0	33.75
1254	142.5	172.5	-26.25	22.5	26.25	-11.25	-11.25	22.5
1255	120	146.25	-41.25	3.75	7.5	-26.25	-26.25	7.5
1256	123.75	165	-33.75	18.75	26.25	-7.5	-11.25	26.25
1257	82.5	138.75	-30	26.25	33.75	0	-3.75	33.75
1258	67.5	116.25	-37.5	15	22.5	-7.5	-7.5	26.25
1259	90	105	-52.5	-3.75	7.5	-22.5	-22.5	11.25
1260	71.25	75	-60	-7.5	0	-30	-26.25	7.5
1261	60	78.75	-56.25	-3.75	3.75	-22.5	-18.75	15
1262	120	135	-37.5	15	26.25	-3.75	0	30
1263	150	172.5	-22.5	33.75	41.25	11.25	11.25	41.25
1264	153.75	183.75	-15	45	48.75	15	18.75	48.75
1265	183.75	202.5	-18.75	45	45	11.25	15	48.75
1266	191.25	206.25	-26.25	41.25	45	15	18.75	52.5
1267	176.25	191.25	-37.5	37.5	41.25	15	18.75	52.5
1268	172.5	187.5	-33.75	37.5	45	15	22.5	56.25
1269	176.25	187.5	-33.75	37.5	45	15	22.5	56.25
1270	153.75	161.25	-45	30	33.75	7.5	11.25	48.75
1271	146.25	138.75	-63.75	11.25	18.75	-7.5	-3.75	33.75
1272	138.75	138.75	-60	15	22.5	-3.75	0	37.5
1273	127.5	150	-48.75	26.25	33.75	7.5	11.25	48.75
1274	120	135	-56.25	18.75	22.5	0	7.5	45
1275	90	108.75	-63.75	15	18.75	-3.75	3.75	41.25
1276	123.75	153.75	-45	37.5	41.25	18.75	26.25	63.75
1277	180	195	-45	45	45	26.25	33.75	71.25
1278	183.75	187.5	-52.5	37.5	37.5	18.75	30	71.25
1279	183.75	195	-52.5	37.5	37.5	18.75	30	75
1280	195	198.75	-60	30	30	15	26.25	71.25
1281	206.25	191.25	-75	15	18.75	3.75	15	60
1282	198.75	187.5	-75	15	15	3.75	18.75	63.75
1283	180	187.5	-63.75	18.75	18.75	7.5	22.5	71.25
1284	172.5	176.25	-63.75	18.75	22.5	3.75	18.75	67.5
1285	198.75	180	-63.75	15	18.75	0	15	60
1286	210	202.5	-48.75	26.25	26.25	11.25	26.25	71.25
1287	202.5	213.75	-33.75	41.25	37.5	22.5	33.75	82.5
1288	210	213.75	-41.25	37.5	33.75	18.75	30	78.75
1289	225	221.25	-48.75	37.5	26.25	11.25	26.25	78.75
1290	243.75	232.5	-56.25	30	22.5	7.5	26.25	78.75
1291	240	228.75	-56.25	30	22.5	11.25	30	82.5
1292	206.25	210	-60	26.25	15	7.5	26.25	78.75
1293	183.75	198.75	-63.75	18.75	7.5	0	15	71.25
1294	210	206.25	-71.25	15	3.75	-3.75	11.25	67.5
1295	221.25	202.5	-71.25	7.5	0	-7.5	11.25	63.75
1296	198.75	187.5	-71.25	3.75	-3.75	-11.25	11.25	63.75
1297	195	210	-48.75	26.25	15	7.5	30	86.25
1298	213.75	236.25	-33.75	41.25	26.25	22.5	45	101.25
1299	228.75	213.75	-52.5	22.5	3.75	0	22.5	78.75
1300	266.25	225	-60	15	-3.75	-15	11.25	67.5
1301	270	251.25	-56.25	18.75	0	-11.25	15	75
1302	202.5	213.75	-63.75	15	-3.75	-15	11.25	71.25
1303	176.25	195	-67.5	11.25	-15	-22.5	3.75	63.75
1304	195	210	-60	15	-11.25	-15	11.25	71.25
1305	225	217.5	-56.25	15	-11.25	-15	11.25	71.25
1306	225	213.75	-52.5	11.25	-15	-18.75	3.75	67.5
1307	213.75	195	-60	-3.75	-30	-37.5	-15	48.75
1308	198.75	180	-60	0	-33.75	-41.25	-18.75	41.25
1309	198.75	202.5	-41.25	11.25	-26.25	-33.75	-15	48.75
1310	202.5	213.75	-33.75	15	-18.75	-33.75	-11.25	48.75
1311	202.5	206.25	-33.75	18.75	-22.5	-37.5	-11.25	45
1312	180	198.75	-26.25	30	-15	-30	-7.5	48.75
1313	176.25	202.5	-22.5	37.5	-11.25	-26.25	-3.75	52.5
1314	187.5	198.75	-26.25	30	-15	-33.75	-11.25	45
1315	172.5	183.75	-22.5	30	-15	-30	-11.25	45
1316	165	183.75	-11.25	37.5	-11.25	-26.25	-7.5	48.75
1317	176.25	187.5	-11.25	37.5	-15	-33.75	-15	41.25
1318	176.25	172.5	-15	33.75	-18.75	-41.25	-22.5	33.75
1319	138.75	138.75	-26.25	22.5	-30	-48.75	-33.75	22.5
1320	108.75	120	-22.5	18.75	-37.5	-52.5	-41.25	15
1321	123.75	123.75	-11.25	22.5	-33.75	-52.5	-41.25	7.5
1322	142.5	138.75	-3.75	30	-26.25	-48.75	-37.5	11.25
1323	142.5	157.5	7.5	41.25	-18.75	-41.25	-30	18.75
1324	112.5	161.25	18.75	52.5	-3.75	-33.75	-22.5	22.5
1325	93.75	150	15	48.75	-7.5	-37.5	-30	18.75
1326	123.75	153.75	3.75	37.5	-22.5	-52.5	-45	7.5
1327	142.5	157.5	0	30	-30	-56.25	-48.75	0
1328	142.5	168.75	11.25	37.5	-22.5	-52.5	-48.75	0
1329	127.5	176.25	22.5	45	-7.5	-41.25	-37.5	11.25
1330	123.75	165	26.25	41.25	-11.25	-45	-41.25	3.75
1331	108.75	138.75	22.5	33.75	-22.5	-52.5	-48.75	-7.5
1332	90	127.5	22.5	30	-22.5	-52.5	-52.5	-15
1333	90	127.5	26.25	33.75	-18.75	-52.5	-52.5	-15
1334	71.25	108.75	26.25	30	-22.5	-56.25	-56.25	-22.5
1335	41.25	82.5	18.75	22.5	-33.75	-67.5	-67.5	-33.75
1336	18.75	67.5	15	18.75	-33.75	-75	-75	-37.5
1337	0	67.5	18.75	26.25	-30	-71.25	-75	-37.5
1338	7.5	78.75	18.75	22.5	-33.75	-75	-75	-37.5
1339	22.5	82.5	15	15	-37.5	-75	-78.75	-37.5
1340	15	71.25	18.75	15	-33.75	-75	-78.75	-33.75
1341	30	82.5	22.5	18.75	-33.75	-71.25	-75	-33.75
1342	56.25	93.75	18.75	7.5	-41.25	-75	-78.75	-41.25
1343	45	75	11.25	0	-48.75	-82.5	-86.25	-52.5
1344	11.25	60	11.25	-7.5	-48.75	-82.5	-90	-52.5
1345	3.75	71.25	26.25	3.75	-41.25	-75	-82.5	-45
1346	26.25	86.25	30	3.75	-41.25	-75	-82.5	-48.75
1347	33.75	90	26.25	0	-45	-78.75	-86.25	-52.5
1348	15	90	33.75	3.75	-41.25	-78.75	-82.5	-48.75
1349	-3.75	82.5	37.5	11.25	-37.5	-75	-82.5	-45
1350	0	71.25	26.25	0	-45	-86.25	-90	-56.25
1351	18.75	71.25	18.75	-11.25	-52.5	-90	-93.75	-56.25
1352	22.5	82.5	18.75	-11.25	-56.25	-90	-97.5	-56.25
1353	-37.5	75	33.75	0	-45	-78.75	-86.25	-41.25
1354	-75	37.5	22.5	-15	-56.25	-90	-93.75	-56.25
1355	-22.5	26.25	-3.75	-45	-86.25	-116.25	-120	-86.25
1356	18.75	41.25	-3.75	-48.75	-86.25	-116.25	-123.75	-86.25
1357	-15	26.25	7.5	-41.25	-75	-105	-112.5	-78.75
1358	-41.25	18.75	11.25	-41.25	-78.75	-105	-116.25	-78.75
1359	-33.75	33.75	18.75	-30	-71.25	-101.25	-108.75	-71.25
1360	-30	45	22.5	-18.75	-63.75	-93.75	-101.25	-67.5
1361	-18.75	56.25	30	-15	-56.25	-90	-97.5	-63.75
1362	0	63.75	30	-15	-60	-90	-97.5	-63.75
1363	18.75	71.25	26.25	-18.75	-60	-93.75	-101.25	-67.5
1364	3.75	63.75	18.75	-22.5	-67.5	-97.5	-105	-67.5
1365	7.5	78.75	22.5	-18.75	-60	-90	-101.25	-63.75
1366	26.25	97.5	37.5	0	-45	-78.75	-86.25	-48.75
1367	18.75	86.25	37.5	-3.75	-45	-78.75	-90	-56.25
1368	-22.5	41.25	22.5	-26.25	-67.5	-97.5	-108.75	-75
1369	-37.5	15	7.5	-41.25	-82.5	-112.5	-120	-90
1370	-48.75	15	11.25	-37.5	-78.75	-108.75	-116.25	-82.5
1371	-63.75	7.5	11.25	-33.75	-75	-105	-112.5	-78.75
1372	-52.5	22.5	11.25	-30	-71.25	-101.25	-105	-75
1373	-15	56.25	15	-18.75	-63.75	-93.75	-101.25	-67.5
1374	-7.5	63.75	15	-22.5	-63.75	-93.75	-97.5	-63.75
1375	-18.75	56.25	15	-22.5	-63.75	-93.75	-97.5	-63.75
1376	-7.5	63.75	22.5	-18.75	-60	-90	-97.5	-60
1377	-7.5	63.75	18.75	-22.5	-63.75	-93.75	-101.25	-60
1378	-48.75	22.5	0	-33.75	-75	-108.75	-116.25	-75
1379	-48.75	15	0	-33.75	-75	-112.5	-116.25	-78.75
1380	-18.75	45	11.25	-26.25	-67.5	-105	-108.75	-71.25
1381	7.5	67.5	26.25	-15	-56.25	-90	-101.25	-63.75
1382	15	78.75	30	-7.5	-48.75	-86.25	-93.75	-63.75
1383	11.25	90	37.5	0	-41.25	-78.75	-86.25	-60
1384	11.25	90	37.5	0	-41.25	-78.75	-86.25	-56.25
1385	-18.75	67.5	26.25	-3.75	-48.75	-82.5	-90	-63.75
1386	-45	56.25	26.25	0	-48.75	-78.75	-86.25	-60
1387	-26.25	63.75	15	-15	-56.25	-86.25	-93.75	-63.75
1388	-30	37.5	-3.75	-33.75	-75	-105	-112.5	-82.5
1389	-22.5	33.75	-3.75	-30	-71.25	-105	-112.5	-78.75
1390	15	75	15	-11.25	-52.5	-86.25	-93.75	-60
1391	26.25	93.75	30	-3.75	-45	-75	-86.25	-52.5
1392	0	67.5	30	-3.75	-45	-78.75	-86.25	-56.25
1393	-7.5	52.5	26.25	-11.25	-52.5	-82.5	-90	-56.25
1394	-7.5	45	22.5	-11.25	-52.5	-86.25	-93.75	-60
1395	-18.75	45	26.25	-7.5	-48.75	-86.25	-93.75	-63.75
1396	-18.75	71.25	33.75	7.5	-37.5	-75	-82.5	-52.5
1397	-30	78.75	33.75	11.25	-33.75	-71.25	-75	-45
1398	-37.5	63.75	22.5	3.75	-37.5	-75	-82.5	-48.75
1399	11.25	71.25	11.25	-7.5	-48.75	-82.5	-90	-56.25
1400	30	71.25	3.75	-18.75	-60	-90	-97.5	-63.75
1401	15	75	7.5	-15	-56.25	-86.25	-90	-60
1402	-11.25	60	3.75	-18.75	-52.5	-86.25	-93.75	-63.75
1403	-37.5	22.5	-11.25	-30	-67.5	-97.5	-108.75	-78.75
1404	-41.25	18.75	-3.75	-33.75	-67.5	-97.5	-108.75	-78.75
1405	-48.75	33.75	11.25	-22.5	-60	-86.25	-93.75	-67.5
1406	-26.25	56.25	18.75	-11.25	-48.75	-78.75	-86.25	-56.25
1407	7.5	78.75	22.5	-3.75	-41.25	-75	-86.25	-56.25
1408	15	93.75	30	7.5	-33.75	-71.25	-78.75	-48.75
1409	7.5	86.25	22.5	0	-45	-78.75	-90	-56.25
1410	-3.75	75	7.5	-11.25	-52.5	-90	-93.75	-60
1411	-15	63.75	3.75	-18.75	-56.25	-90	-97.5	-63.75
1412	-26.25	71.25	18.75	-3.75	-45	-78.75	-86.25	-52.5
1413	-18.75	71.25	15	-11.25	-48.75	-82.5	-86.25	-52.5
1414	-11.25	41.25	-7.5	-33.75	-71.25	-101.25	-108.75	-75
1415	-11.25	26.25	-22.5	-48.75	-82.5	-112.5	-120	-86.25
1416	7.5	67.5	0	-30	-63.75	-90	-101.25	-67.5
1417	-15	75	7.5	-22.5	-56.25	-86.25	-93.75	-60
1418	-33.75	48.75	0	-30	-67.5	-97.5	-105	-75
1419	-18.75	52.5	0	-26.25	-63.75	-93.75	-101.25	-75
1420	-3.75	67.5	0	-26.25	-60	-90	-97.5	-71.25
1421	-7.5	60	0	-26.25	-63.75	-93.75	-101.25	-75
1422	-26.25	33.75	-7.5	-37.5	-71.25	-101.25	-108.75	-82.5
1423	-30	30	-15	-41.25	-78.75	-108.75	-112.5	-86.25
1424	-11.25	60	-11.25	-37.5	-75	-105	-108.75	-78.75
1425	7.5	75	-15	-41.25	-75	-101.25	-105	-75
1426	15	71.25	-15	-41.25	-78.75	-101.25	-105	-71.25
1427	11.25	71.25	-11.25	-37.5	-75	-97.5	-97.5	-67.5
1428	-3.75	63.75	-3.75	-37.5	-75	-97.5	-97.5	-67.5
1429	-11.25	52.5	-7.5	-45	-78.75	-105	-105	-75
1430	-11.25	60	-3.75	-41.25	-78.75	-105	-105	-78.75
1431	-15	75	7.5	-30	-67.5	-97.5	-101.25	-67.5
1432	-60	78.75	22.5	-11.25	-52.5	-82.5	-86.25	-48.75
1433	-60	71.25	15	-18.75	-60	-90	-93.75	-56.25
1434	-11.25	52.5	-18.75	-52.5	-93.75	-123.75	-123.75	-86.25
1435	3.75	52.5	-18.75	-56.25	-97.5	-123.75	-123.75	-86.25
1436	-7.5	56.25	-7.5	-48.75	-86.25	-112.5	-116.25	-78.75
1437	-22.5	52.5	0	-41.25	-82.5	-105	-108.75	-71.25
1438	-22.5	52.5	-3.75	-45	-86.25	-112.5	-112.5	-78.75
1439	-22.5	37.5	-18.75	-63.75	-97.5	-123.75	-123.75	-90
1440	-22.5	30	-18.75	-67.5	-101.25	-127.5	-127.5	-97.5
1441	-37.5	30	-15	-60	-97.5	-123.75	-123.75	-90
1442	-67.5	30	-3.75	-48.75	-86.25	-112.5	-112.5	-78.75
1443	-63.75	41.25	3.75	-41.25	-78.75	-105	-105	-71.25
1444	-18.75	67.5	3.75	-41.25	-82.5	-108.75	-108.75	-75
1445	15	90	-3.75	-45	-86.25	-116.25	-112.5	-75
1446	33.75	101.25	-3.75	-41.25	-86.25	-116.25	-112.5	-75
1447	15	75	-15	-56.25	-97.5	-127.5	-123.75	-86.25
1448	-11.25	60	-15	-60	-101.25	-127.5	-123.75	-90
1449	-22.5	41.25	-18.75	-60	-101.25	-127.5	-127.5	-93.75
1450	-33.75	18.75	-18.75	-67.5	-105	-131.25	-131.25	-97.5
1451	-18.75	37.5	-7.5	-56.25	-97.5	-123.75	-120	-90
1452	-26.25	33.75	-7.5	-60	-97.5	-123.75	-123.75	-90
1453	-60	3.75	-18.75	-71.25	-112.5	-138.75	-138.75	-105
1454	-41.25	30	-11.25	-63.75	-105	-135	-131.25	-97.5
1455	0	71.25	3.75	-56.25	-101.25	-123.75	-120	-86.25
1456	0	71.25	7.5	-45	-90	-116.25	-116.25	-82.5
1457	-45	26.25	-15	-56.25	-97.5	-131.25	-131.25	-93.75
1458	-67.5	0	-30	-71.25	-116.25	-146.25	-142.5	-105
1459	-41.25	30	-22.5	-67.5	-108.75	-138.75	-135	-97.5
1460	-26.25	52.5	-18.75	-60	-101.25	-131.25	-127.5	-90
1461	-33.75	37.5	-22.5	-67.5	-108.75	-135	-135	-97.5
1462	-67.5	11.25	-22.5	-71.25	-112.5	-138.75	-135	-97.5
1463	-67.5	11.25	-22.5	-71.25	-108.75	-135	-135	-93.75
1464	-48.75	11.25	-30	-82.5	-120	-146.25	-142.5	-101.25
1465	-41.25	18.75	-18.75	-75	-120	-142.5	-138.75	-97.5
1466	-48.75	18.75	-11.25	-67.5	-108.75	-135	-135	-97.5
1467	-33.75	26.25	-7.5	-63.75	-105	-135	-135	-97.5
1468	-26.25	45	0	-52.5	-97.5	-131.25	-127.5	-90
1469	-30	52.5	0	-48.75	-93.75	-127.5	-127.5	-86.25
1470	3.75	67.5	-11.25	-60	-105	-135	-138.75	-97.5
1471	18.75	67.5	-18.75	-67.5	-108.75	-142.5	-146.25	-101.25
1472	3.75	67.5	-18.75	-63.75	-105	-135	-142.5	-93.75
1473	-18.75	56.25	-18.75	-63.75	-105	-135	-138.75	-90
1474	-52.5	18.75	-22.5	-71.25	-112.5	-138.75	-138.75	-97.5
1475	-56.25	11.25	-18.75	-71.25	-112.5	-135	-138.75	-93.75
1476	-45	22.5	-11.25	-67.5	-105	-127.5	-131.25	-90
1477	-56.25	18.75	-11.25	-67.5	-105	-131.25	-131.25	-90
1478	-48.75	22.5	-11.25	-67.5	-105	-135	-135	-93.75
1479	-60	3.75	-15	-71.25	-112.5	-142.5	-142.5	-97.5
1480	-63.75	11.25	-15	-67.5	-112.5	-142.5	-142.5	-93.75
1481	-22.5	52.5	-11.25	-56.25	-105	-135	-135	-82.5
1482	3.75	63.75	-15	-60	-105	-138.75	-138.75	-86.25
1483	-3.75	52.5	-22.5	-67.5	-112.5	-142.5	-146.25	-93.75
1484	-15	48.75	-22.5	-63.75	-108.75	-138.75	-142.5	-90
1485	-3.75	67.5	-11.25	-52.5	-97.5	-131.25	-135	-82.5
1486	11.25	90	7.5	-41.25	-86.25	-116.25	-120	-71.25
1487	-7.5	78.75	3.75	-48.75	-90	-120	-123.75	-75
1488	-41.25	45	-3.75	-56.25	-97.5	-127.5	-131.25	-82.5
1489	-52.5	30	0	-60	-101.25	-127.5	-131.25	-82.5
1490	-45	33.75	-3.75	-60	-101.25	-123.75	-127.5	-86.25
1491	-41.25	45	-3.75	-56.25	-97.5	-123.75	-127.5	-86.25
1492	-30	63.75	3.75	-45	-90	-120	-123.75	-78.75
1493	0	90	15	-33.75	-78.75	-112.5	-116.25	-71.25
1494	-3.75	82.5	15	-33.75	-78.75	-112.5	-112.5	-67.5
1495	-52.5	60	22.5	-30	-78.75	-112.5	-112.5	-63.75
1496	-63.75	52.5	26.25	-33.75	-82.5	-112.5	-120	-67.5
1497	-33.75	60	22.5	-37.5	-90	-120	-127.5	-78.75
1498	-37.5	48.75	30	-33.75	-86.25	-120	-123.75	-78.75
1499	-33.75	56.25	41.25	-26.25	-75	-108.75	-116.25	-75
1500	-22.5	90	63.75	0	-52.5	-86.25	-93.75	-52.5
1501	-30	78.75	60	-3.75	-56.25	-90	-93.75	-56.25
1502	-15	60	45	-15	-67.5	-105	-108.75	-71.25
1503	-3.75	67.5	45	-15	-71.25	-108.75	-112.5	-75
1504	-3.75	93.75	60	7.5	-52.5	-93.75	-101.25	-60
1505	30	142.5	75	22.5	-37.5	-78.75	-86.25	-41.25
1506	67.5	168.75	78.75	26.25	-33.75	-75	-82.5	-33.75
1507	37.5	146.25	71.25	18.75	-41.25	-82.5	-86.25	-41.25
1508	3.75	131.25	71.25	15	-37.5	-78.75	-82.5	-37.5
1509	7.5	142.5	63.75	11.25	-41.25	-78.75	-82.5	-37.5
1510	-26.25	116.25	52.5	3.75	-45	-78.75	-86.25	-37.5
1511	-41.25	86.25	33.75	-15	-56.25	-90	-93.75	-45
1512	-7.5	90	7.5	-26.25	-67.5	-97.5	-101.25	-52.5
1513	0	93.75	-7.5	-30	-67.5	-97.5	-97.5	-52.5
1514	18.75	120	-7.5	-26.25	-63.75	-90	-86.25	-41.25
1515	45	142.5	-7.5	-18.75	-56.25	-82.5	-78.75	-33.75
1516	56.25	153.75	0	-15	-48.75	-78.75	-78.75	-30
1517	45	146.25	0	-7.5	-45	-78.75	-78.75	-30
1518	37.5	123.75	-11.25	-22.5	-63.75	-93.75	-90	-41.25
1519	33.75	112.5	-22.5	-41.25	-78.75	-105	-101.25	-48.75
1520	30	116.25	-30	-52.5	-90	-112.5	-108.75	-52.5
1521	7.5	93.75	-41.25	-60	-97.5	-120	-116.25	-60
1522	-3.75	67.5	-48.75	-71.25	-108.75	-127.5	-123.75	-67.5
1523	22.5	75	-45	-71.25	-108.75	-123.75	-116.25	-67.5
1524	22.5	78.75	-33.75	-67.5	-101.25	-120	-112.5	-63.75
1525	-7.5	60	-30	-67.5	-105	-123.75	-120	-75
1526	-11.25	52.5	-26.25	-63.75	-105	-127.5	-123.75	-78.75
1527	-11.25	71.25	-15	-52.5	-93.75	-120	-112.5	-67.5
1528	-3.75	90	-3.75	-37.5	-82.5	-108.75	-108.75	-56.25
1529	26.25	93.75	-11.25	-41.25	-90	-120	-116.25	-67.5
1530	11.25	71.25	-22.5	-60	-101.25	-131.25	-131.25	-78.75
1531	7.5	60	-30	-63.75	-108.75	-135	-135	-86.25
1532	7.5	71.25	-22.5	-56.25	-101.25	-127.5	-123.75	-75
1533	-22.5	63.75	-22.5	-56.25	-97.5	-120	-116.25	-67.5
1534	-33.75	52.5	-26.25	-63.75	-101.25	-127.5	-123.75	-75
1535	-48.75	37.5	-30	-75	-116.25	-135	-131.25	-86.25
1536	-67.5	22.5	-26.25	-78.75	-120	-142.5	-138.75	-90
1537	-45	18.75	-30	-82.5	-123.75	-150	-146.25	-101.25
1538	-48.75	3.75	-30	-82.5	-123.75	-153.75	-150	-105
1539	-75	-11.25	-30	-82.5	-127.5	-157.5	-153.75	-105
1540	-37.5	26.25	-18.75	-71.25	-120	-150	-142.5	-93.75
1541	0	60	-15	-67.5	-116.25	-146.25	-142.5	-90
1542	-15	45	-18.75	-75	-120	-150	-146.25	-93.75
1543	-41.25	11.25	-30	-86.25	-131.25	-161.25	-157.5	-108.75
1544	-45	11.25	-30	-82.5	-123.75	-153.75	-153.75	-105
1545	-11.25	41.25	-26.25	-78.75	-120	-150	-146.25	-97.5
1546	-11.25	30	-37.5	-90	-131.25	-157.5	-150	-105
1547	-56.25	-15	-45	-101.25	-142.5	-165	-161.25	-112.5
1548	-56.25	-11.25	-37.5	-97.5	-135	-157.5	-153.75	-108.75
1549	-7.5	52.5	-11.25	-71.25	-108.75	-131.25	-127.5	-86.25
1550	-3.75	86.25	0	-52.5	-93.75	-120	-112.5	-71.25
1551	-37.5	45	-18.75	-71.25	-112.5	-138.75	-135	-93.75
1552	-52.5	7.5	-37.5	-90	-135	-161.25	-153.75	-112.5
1553	-67.5	3.75	-37.5	-86.25	-135	-161.25	-153.75	-108.75
1554	-71.25	0	-41.25	-86.25	-135	-157.5	-153.75	-105
1555	-48.75	18.75	-41.25	-86.25	-135	-161.25	-153.75	-108.75
1556	-41.25	33.75	-41.25	-86.25	-131.25	-161.25	-153.75	-105
1557	-41.25	30	-37.5	-86.25	-127.5	-157.5	-157.5	-105
1558	-48.75	22.5	-33.75	-82.5	-131.25	-157.5	-153.75	-105
1559	-60	18.75	-30	-82.5	-127.5	-157.5	-153.75	-105
1560	-75	7.5	-22.5	-75	-123.75	-150	-150	-101.25
1561	-56.25	3.75	-26.25	-78.75	-127.5	-157.5	-157.5	-112.5
1562	-52.5	3.75	-22.5	-78.75	-123.75	-157.5	-157.5	-112.5
1563	-56.25	3.75	-18.75	-75	-123.75	-157.5	-161.25	-116.25
1564	-26.25	22.5	-11.25	-63.75	-120	-157.5	-157.5	-112.5
1565	-18.75	15	3.75	-45	-116.25	-165	-168.75	-123.75
1566	-41.25	-26.25	30	-15	-116.25	-180	-195	-153.75
1567	-60	-60	75	26.25	-108.75	-195	-221.25	-183.75
1568	-86.25	-71.25	138.75	86.25	-86.25	-195	-228.75	-195
1569	-78.75	-71.25	187.5	135	-71.25	-198.75	-236.25	-206.25
1570	-30	-75	202.5	153.75	-67.5	-210	-255	-225
1571	-18.75	-67.5	221.25	202.5	-37.5	-191.25	-240	-213.75
1572	-3.75	-15	270	285	33.75	-131.25	-187.5	-172.5
1573	63.75	67.5	303.75	367.5	105	-63.75	-131.25	-123.75
1574	138.75	150	330	431.25	176.25	3.75	-67.5	-63.75
1575	187.5	232.5	352.5	491.25	247.5	78.75	7.5	7.5
1576	266.25	318.75	348.75	528.75	303.75	142.5	75	78.75
1577	371.25	397.5	311.25	555	352.5	206.25	146.25	150
1578	427.5	483.75	288.75	603.75	438.75	315	262.5	258.75
1579	461.25	592.5	266.25	637.5	525	431.25	386.25	382.5
1580	540	720	217.5	633.75	600	543.75	513.75	510
1581	611.25	873.75	191.25	656.25	705	690	671.25	667.5
1582	660	1057.5	195	731.25	843.75	866.25	851.25	836.25
1583	675	1233.75	142.5	746.25	948.75	1027.5	1035	1023.75
1584	716.25	1413.75	30	697.5	1020	1181.25	1226.25	1226.25
1585	806.25	1515	-82.5	641.25	1076.25	1305	1376.25	1376.25
1586	843.75	1545	-202.5	528.75	1083.75	1383.75	1481.25	1477.5
1587	798.75	1575	-273.75	423.75	1102.5	1473.75	1590	1575
1588	723.75	1518.75	-255	435	1170	1552.5	1646.25	1601.25
1589	678.75	1443.75	-225	468.75	1241.25	1612.5	1676.25	1582.5
1590	626.25	1406.25	-247.5	401.25	1245	1631.25	1676.25	1563.75
1591	532.5	1331.25	-277.5	273.75	1166.25	1560	1597.5	1481.25
1592	420	1181.25	-281.25	135	1008.75	1372.5	1406.25	1297.5
1593	270	990	-243.75	30	832.5	1128.75	1155	1068.75
1594	142.5	821.25	-206.25	-82.5	615	851.25	881.25	843.75
1595	37.5	675	-206.25	-221.25	363.75	566.25	611.25	626.25
1596	-105	491.25	-236.25	-375	120	300	363.75	416.25
1597	-183.75	341.25	-247.5	-461.25	-33.75	120	180	247.5
1598	-202.5	240	-236.25	-461.25	-90	26.25	56.25	112.5
1599	-240	157.5	-225	-446.25	-112.5	-26.25	-15	26.25
1600	-247.5	120	-232.5	-431.25	-120	-45	-41.25	-3.75
1601	-187.5	127.5	-251.25	-405	-112.5	-41.25	-37.5	-3.75
1602	-127.5	153.75	-247.5	-363.75	-101.25	-33.75	-26.25	3.75
1603	-127.5	131.25	-247.5	-341.25	-127.5	-60	-41.25	0
1604	-157.5	78.75	-243.75	-330	-161.25	-93.75	-67.5	-18.75
1605	-157.5	56.25	-225	-296.25	-161.25	-105	-78.75	-30
1606	-108.75	60	-210	-266.25	-157.5	-112.5	-86.25	-37.5
1607	-75	75	-187.5	-225	-131.25	-101.25	-78.75	-30
1608	-75	86.25	-161.25	-161.25	-86.25	-67.5	-52.5	-11.25
1609	-41.25	112.5	-123.75	-101.25	-41.25	-37.5	-30	3.75
1610	18.75	157.5	-75	-45	-3.75	-7.5	-11.25	18.75
1611	15	168.75	-45	-15	15	0	-7.5	22.5
1612	-18.75	138.75	-33.75	-3.75	11.25	-11.25	-18.75	11.25
1613	-3.75	135	-30	0	7.5	-18.75	-30	0
1614	41.25	153.75	-18.75	7.5	7.5	-18.75	-33.75	-7.5
1615	33.75	127.5	-26.25	-3.75	-11.25	-41.25	-56.25	-22.5
1616	7.5	108.75	-26.25	-11.25	-26.25	-56.25	-67.5	-33.75
1617	3.75	105	-30	-15	-30	-60	-75	-37.5
1618	-11.25	86.25	-30	-18.75	-33.75	-67.5	-82.5	-48.75
1619	-33.75	75	-15	-15	-33.75	-71.25	-82.5	-48.75
1620	-7.5	101.25	0	-3.75	-26.25	-63.75	-75	-41.25
1621	45	135	11.25	7.5	-22.5	-56.25	-71.25	-37.5
1622	56.25	131.25	7.5	3.75	-30	-63.75	-75	-41.25
1623	37.5	112.5	0	0	-33.75	-71.25	-82.5	-48.75
1624	26.25	108.75	3.75	3.75	-30	-67.5	-78.75	-45
1625	11.25	105	0	0	-37.5	-75	-82.5	-45
1626	-15	86.25	-7.5	-7.5	-48.75	-86.25	-90	-56.25
1627	-11.25	82.5	-15	-15	-52.5	-90	-97.5	-60
1628	15	86.25	-18.75	-18.75	-56.25	-90	-97.5	-63.75
1629	11.25	63.75	-37.5	-37.5	-75	-105	-116.25	-78.75
1630	-22.5	33.75	-41.25	-41.25	-78.75	-108.75	-116.25	-82.5
1631	-3.75	56.25	-26.25	-26.25	-63.75	-97.5	-105	-71.25
1632	22.5	86.25	-11.25	-15	-56.25	-90	-97.5	-63.75
1633	7.5	86.25	-11.25	-11.25	-52.5	-86.25	-93.75	-63.75
1634	-3.75	82.5	-11.25	-3.75	-45	-82.5	-90	-56.25
1635	18.75	105	-3.75	7.5	-37.5	-75	-82.5	-48.75
1636	45	131.25	0	11.25	-33.75	-71.25	-75	-45
1637	71.25	135	-11.25	3.75	-41.25	-78.75	-82.5	-52.5
1638	82.5	135	-15	3.75	-41.25	-75	-78.75	-48.75
1639	67.5	138.75	-7.5	11.25	-30	-60	-67.5	-37.5
1640	60	142.5	3.75	22.5	-22.5	-52.5	-56.25	-26.25
1641	48.75	123.75	-7.5	11.25	-30	-60	-67.5	-33.75
1642	30	82.5	-22.5	-7.5	-48.75	-78.75	-86.25	-52.5
1643	22.5	63.75	-30	-18.75	-60	-90	-93.75	-63.75
1644	22.5	60	-26.25	-15	-56.25	-86.25	-93.75	-63.75
1645	37.5	75	-15	0	-45	-78.75	-82.5	-56.25
1646	71.25	116.25	-3.75	15	-30	-63.75	-71.25	-41.25
1647	60	138.75	7.5	26.25	-18.75	-52.5	-56.25	-26.25
1648	41.25	142.5	3.75	33.75	-15	-48.75	-52.5	-18.75
1649	63.75	135	-7.5	26.25	-26.25	-60	-63.75	-26.25
1650	108.75	157.5	-11.25	22.5	-22.5	-60	-63.75	-30
1651	112.5	168.75	-7.5	30	-15	-48.75	-56.25	-22.5
1652	67.5	127.5	-22.5	15	-26.25	-60	-67.5	-33.75
1653	45	101.25	-30	7.5	-37.5	-75	-78.75	-37.5
1654	60	120	-22.5	15	-30	-67.5	-67.5	-30
1655	86.25	131.25	-26.25	15	-30	-63.75	-63.75	-26.25
1656	82.5	120	-26.25	11.25	-30	-63.75	-60	-30
1657	52.5	108.75	-22.5	15	-26.25	-60	-60	-30
1658	30	97.5	-22.5	18.75	-26.25	-56.25	-60	-30
1659	26.25	116.25	-11.25	37.5	-7.5	-37.5	-45	-15
1660	71.25	161.25	0	52.5	7.5	-26.25	-30	0
1661	101.25	165	-11.25	45	-7.5	-37.5	-41.25	-7.5
1662	112.5	165	-18.75	37.5	-11.25	-41.25	-45	-11.25
1663	112.5	165	-18.75	37.5	-7.5	-37.5	-41.25	-3.75
1664	56.25	116.25	-37.5	22.5	-18.75	-48.75	-52.5	-15
1665	37.5	82.5	-45	15	-30	-56.25	-60	-22.5
1666	56.25	82.5	-48.75	11.25	-33.75	-56.25	-60	-26.25
1667	86.25	116.25	-37.5	22.5	-18.75	-41.25	-45	-15
1668	120	157.5	-26.25	33.75	-3.75	-26.25	-26.25	0
1669	127.5	168.75	-18.75	45	3.75	-18.75	-18.75	11.25
1670	120	165	-18.75	45	3.75	-18.75	-18.75	11.25
1671	120	176.25	-15	48.75	3.75	-15	-18.75	11.25
1672	135	187.5	-15	52.5	7.5	-11.25	-15	18.75
1673	142.5	183.75	-22.5	60	11.25	-11.25	-15	18.75
1674	138.75	183.75	-22.5	56.25	11.25	-11.25	-11.25	22.5
1675	135	180	-26.25	52.5	7.5	-7.5	-7.5	26.25
1676	123.75	165	-37.5	41.25	0	-18.75	-18.75	15
1677	138.75	168.75	-45	33.75	-7.5	-26.25	-26.25	11.25
1678	146.25	172.5	-45	37.5	-7.5	-22.5	-22.5	15
1679	135	161.25	-45	33.75	-11.25	-22.5	-22.5	11.25
1680	120	161.25	-41.25	41.25	-3.75	-15	-15	18.75
1681	138.75	187.5	-30	52.5	7.5	-7.5	-3.75	30
1682	180	217.5	-30	56.25	11.25	-3.75	0	33.75
1683	176.25	217.5	-22.5	63.75	18.75	0	7.5	45
1684	165	213.75	-26.25	67.5	18.75	0	7.5	45
1685	183.75	225	-33.75	63.75	15	0	7.5	45
1686	202.5	228.75	-41.25	56.25	7.5	-3.75	3.75	45
1687	202.5	225	-41.25	56.25	7.5	0	7.5	48.75
1688	165	191.25	-56.25	41.25	-3.75	-15	-3.75	37.5
1689	116.25	142.5	-75	22.5	-22.5	-30	-18.75	22.5
1690	146.25	168.75	-67.5	26.25	-15	-22.5	-11.25	26.25
1691	183.75	206.25	-56.25	33.75	-11.25	-18.75	-3.75	37.5
1692	183.75	202.5	-60	30	-15	-18.75	-7.5	33.75
1693	191.25	210	-56.25	33.75	-11.25	-15	-3.75	37.5
1694	165	195	-60	33.75	-15	-18.75	-3.75	37.5
1695	157.5	195	-56.25	37.5	-11.25	-15	0	41.25
1696	191.25	225	-48.75	45	-3.75	-7.5	7.5	48.75
1697	191.25	221.25	-60	33.75	-18.75	-18.75	0	45
1698	183.75	213.75	-67.5	26.25	-18.75	-18.75	-3.75	48.75
1699	202.5	221.25	-63.75	33.75	-15	-18.75	0	48.75
1700	217.5	232.5	-60	33.75	-15	-15	3.75	56.25
1701	202.5	232.5	-56.25	30	-18.75	-15	3.75	56.25
1702	191.25	221.25	-60	22.5	-26.25	-18.75	0	52.5
1703	198.75	210	-71.25	7.5	-41.25	-33.75	-11.25	41.25
1704	195	213.75	-60	15	-33.75	-26.25	-7.5	45
1705	187.5	210	-56.25	18.75	-33.75	-22.5	-3.75	52.5
1706	213.75	217.5	-56.25	18.75	-33.75	-26.25	-3.75	52.5
1707	232.5	251.25	-41.25	37.5	-18.75	-11.25	11.25	71.25
1708	225	266.25	-37.5	41.25	-18.75	-11.25	11.25	71.25
1709	221.25	255	-48.75	30	-33.75	-30	0	60
1710	243.75	255	-60	15	-45	-41.25	-15	48.75
1711	236.25	247.5	-63.75	11.25	-52.5	-41.25	-18.75	48.75
1712	198.75	228.75	-67.5	3.75	-56.25	-48.75	-22.5	45
1713	191.25	232.5	-63.75	7.5	-56.25	-48.75	-22.5	45
1714	213.75	240	-63.75	3.75	-60	-48.75	-26.25	41.25
1715	221.25	236.25	-60	3.75	-60	-48.75	-22.5	45
1716	240	255	-45	15	-48.75	-41.25	-11.25	56.25
1717	240	270	-33.75	22.5	-45	-37.5	-7.5	60
1718	210	258.75	-33.75	26.25	-45	-37.5	-7.5	60
1719	202.5	247.5	-41.25	18.75	-56.25	-45	-15	52.5
1720	217.5	247.5	-52.5	7.5	-67.5	-63.75	-30	37.5
1721	206.25	243.75	-45	11.25	-63.75	-60	-30	37.5
1722	180	243.75	-26.25	26.25	-52.5	-45	-18.75	48.75
1723	161.25	240	-18.75	30	-48.75	-41.25	-18.75	48.75
1724	176.25	236.25	-26.25	22.5	-56.25	-56.25	-30	33.75
1725	172.5	206.25	-37.5	3.75	-75	-71.25	-48.75	15
1726	135	157.5	-52.5	-11.25	-93.75	-90	-71.25	-3.75
1727	131.25	168.75	-37.5	-3.75	-86.25	-86.25	-67.5	-3.75
1728	138.75	191.25	-22.5	11.25	-75	-75	-60	0
1729	138.75	183.75	-22.5	11.25	-78.75	-82.5	-71.25	-7.5
1730	142.5	187.5	-18.75	15	-78.75	-82.5	-71.25	-11.25
1731	150	213.75	0	30	-63.75	-75	-63.75	0
1732	142.5	210	-3.75	30	-67.5	-78.75	-71.25	-7.5
1733	120	191.25	-7.5	26.25	-71.25	-86.25	-75	-15
1734	120	198.75	3.75	33.75	-60	-71.25	-63.75	-3.75
1735	101.25	187.5	11.25	41.25	-52.5	-63.75	-56.25	3.75
1736	93.75	176.25	11.25	41.25	-52.5	-60	-52.5	0
1737	105	168.75	7.5	33.75	-60	-67.5	-63.75	-15
1738	93.75	153.75	11.25	33.75	-60	-67.5	-67.5	-22.5
1739	63.75	142.5	18.75	37.5	-52.5	-67.5	-67.5	-22.5
1740	75	161.25	33.75	48.75	-41.25	-56.25	-60	-15
1741	86.25	161.25	30	41.25	-48.75	-63.75	-67.5	-26.25
1742	78.75	150	18.75	33.75	-56.25	-75	-78.75	-33.75
1743	75	153.75	22.5	37.5	-56.25	-75	-78.75	-33.75
1744	63.75	153.75	22.5	37.5	-56.25	-75	-78.75	-33.75
1745	48.75	146.25	18.75	33.75	-60	-78.75	-86.25	-37.5
1746	52.5	150	18.75	30	-52.5	-75	-82.5	-37.5
1747	63.75	157.5	22.5	30	-52.5	-75	-82.5	-41.25
1748	45	138.75	15	22.5	-63.75	-78.75	-90	-45
1749	26.25	120	15	18.75	-63.75	-82.5	-90	-48.75
1750	18.75	112.5	15	15	-67.5	-82.5	-90	-52.5
1751	11.25	101.25	15	11.25	-67.5	-82.5	-93.75	-60
1752	18.75	108.75	18.75	11.25	-63.75	-82.5	-93.75	-63.75
1753	26.25	123.75	26.25	18.75	-60	-82.5	-93.75	-60
1754	7.5	108.75	22.5	11.25	-67.5	-90	-101.25	-67.5
1755	0	108.75	26.25	15	-67.5	-90	-101.25	-67.5
1756	18.75	127.5	30	18.75	-60	-82.5	-93.75	-60
1757	41.25	138.75	30	18.75	-60	-78.75	-90	-56.25
1758	60	146.25	26.25	15	-63.75	-82.5	-93.75	-60
1759	48.75	146.25	30	15	-63.75	-82.5	-93.75	-56.25
1760	-3.75	120	22.5	3.75	-67.5	-90	-97.5	-63.75
1761	-18.75	108.75	18.75	0	-71.25	-90	-101.25	-67.5
1762	-33.75	71.25	3.75	-22.5	-93.75	-112.5	-123.75	-86.25
1763	-67.5	15	-15	-48.75	-120	-135	-146.25	-112.5
1764	-56.25	26.25	-3.75	-41.25	-112.5	-127.5	-142.5	-108.75
1765	-33.75	63.75	15	-18.75	-90	-108.75	-123.75	-90
1766	-45	67.5	22.5	-15	-86.25	-105	-120	-82.5
1767	-48.75	71.25	22.5	-11.25	-86.25	-105	-120	-82.5
1768	-45	75	18.75	-11.25	-86.25	-108.75	-123.75	-86.25
1769	-30	86.25	15	-15	-86.25	-108.75	-123.75	-86.25
1770	-7.5	108.75	18.75	-11.25	-82.5	-101.25	-116.25	-78.75
1771	-11.25	112.5	22.5	-7.5	-75	-93.75	-108.75	-71.25
1772	-15	105	18.75	-7.5	-78.75	-97.5	-112.5	-71.25
1773	-18.75	101.25	22.5	-7.5	-78.75	-97.5	-112.5	-75
1774	-18.75	101.25	30	-7.5	-75	-93.75	-108.75	-71.25
1775	-11.25	86.25	18.75	-18.75	-86.25	-105	-120	-86.25
1776	-11.25	82.5	15	-22.5	-90	-112.5	-127.5	-90
1777	-30	75	15	-22.5	-90	-112.5	-131.25	-93.75
1778	-37.5	67.5	18.75	-26.25	-93.75	-120	-131.25	-93.75
1779	-18.75	93.75	30	-7.5	-78.75	-101.25	-116.25	-82.5
1780	-15	108.75	30	3.75	-71.25	-90	-105	-75
1781	-26.25	93.75	22.5	-3.75	-71.25	-90	-105	-75
1782	-15	97.5	18.75	-11.25	-78.75	-93.75	-112.5	-86.25
1783	-30	93.75	18.75	-11.25	-78.75	-97.5	-112.5	-86.25
1784	-45	86.25	18.75	-11.25	-78.75	-97.5	-116.25	-86.25
1785	-30	82.5	15	-15	-82.5	-101.25	-120	-90
1786	-30	67.5	7.5	-26.25	-90	-108.75	-127.5	-97.5
1787	-33.75	67.5	15	-22.5	-82.5	-101.25	-120	-90
1788	-18.75	86.25	22.5	-11.25	-75	-97.5	-112.5	-82.5
1789	-11.25	101.25	33.75	0	-63.75	-86.25	-105	-75
1790	11.25	123.75	41.25	7.5	-56.25	-78.75	-97.5	-71.25
1791	-7.5	112.5	33.75	3.75	-63.75	-90	-105	-78.75
1792	-48.75	105	41.25	15	-52.5	-78.75	-97.5	-71.25
1793	-7.5	135	37.5	11.25	-52.5	-82.5	-101.25	-71.25
1794	18.75	123.75	15	-7.5	-71.25	-93.75	-112.5	-86.25
1795	-22.5	63.75	0	-26.25	-86.25	-108.75	-127.5	-101.25
1796	-52.5	45	-3.75	-22.5	-86.25	-105	-123.75	-97.5
1797	-52.5	52.5	3.75	-15	-78.75	-97.5	-116.25	-90
1798	-56.25	52.5	11.25	-15	-75	-97.5	-116.25	-90
1799	-48.75	56.25	15	-15	-75	-93.75	-116.25	-90
1800	-48.75	60	18.75	-11.25	-71.25	-90	-112.5	-86.25
1801	-33.75	78.75	18.75	-3.75	-63.75	-86.25	-105	-82.5
1802	11.25	120	22.5	3.75	-56.25	-78.75	-97.5	-71.25
1803	22.5	138.75	26.25	11.25	-52.5	-75	-90	-67.5
1804	-7.5	116.25	22.5	7.5	-56.25	-78.75	-97.5	-71.25
1805	-30	93.75	11.25	-3.75	-63.75	-86.25	-105	-82.5
1806	-30	93.75	7.5	-7.5	-67.5	-90	-108.75	-86.25
1807	0	116.25	11.25	-3.75	-63.75	-82.5	-105	-82.5
1808	18.75	123.75	11.25	0	-60	-82.5	-105	-78.75
1809	3.75	105	0	-15	-75	-93.75	-116.25	-90
1810	-11.25	90	0	-18.75	-75	-93.75	-116.25	-90
1811	0	93.75	11.25	-11.25	-67.5	-86.25	-108.75	-82.5
1812	-7.5	101.25	22.5	0	-56.25	-71.25	-93.75	-71.25
1813	-11.25	108.75	30	7.5	-45	-63.75	-86.25	-63.75
1814	-3.75	105	26.25	3.75	-52.5	-67.5	-90	-71.25
1815	-18.75	101.25	18.75	0	-60	-75	-97.5	-75
1816	-37.5	105	22.5	11.25	-48.75	-67.5	-90	-63.75
1817	-48.75	105	18.75	11.25	-45	-67.5	-90	-63.75
1818	-30	90	0	-15	-67.5	-86.25	-108.75	-86.25
1819	-22.5	86.25	-3.75	-18.75	-71.25	-90	-112.5	-86.25
1820	-30	97.5	7.5	-7.5	-60	-75	-97.5	-71.25
1821	-22.5	97.5	3.75	-11.25	-63.75	-75	-101.25	-75
1822	-11.25	93.75	0	-22.5	-71.25	-82.5	-105	-82.5
1823	-11.25	90	3.75	-18.75	-71.25	-82.5	-105	-82.5
1824	-3.75	105	11.25	-7.5	-60	-71.25	-97.5	-75
1825	-7.5	116.25	15	0	-52.5	-67.5	-90	-67.5
1826	3.75	138.75	18.75	3.75	-48.75	-63.75	-86.25	-67.5
1827	41.25	180	18.75	7.5	-48.75	-63.75	-90	-67.5
1828	52.5	191.25	15	0	-52.5	-71.25	-93.75	-71.25
1829	11.25	131.25	-11.25	-22.5	-75	-90	-112.5	-90
1830	-60	41.25	-26.25	-37.5	-90	-105	-127.5	-105
1831	-82.5	26.25	-11.25	-26.25	-78.75	-90	-116.25	-90
1832	-41.25	71.25	-3.75	-18.75	-67.5	-82.5	-105	-82.5
1833	-11.25	93.75	-7.5	-18.75	-67.5	-78.75	-105	-78.75
1834	-41.25	67.5	-7.5	-26.25	-78.75	-82.5	-108.75	-90
1835	-41.25	56.25	-11.25	-33.75	-86.25	-90	-116.25	-97.5
1836	-7.5	82.5	-3.75	-30	-78.75	-86.25	-108.75	-90
1837	22.5	116.25	3.75	-22.5	-75	-78.75	-101.25	-82.5
1838	0	108.75	0	-22.5	-71.25	-78.75	-101.25	-82.5
1839	-41.25	101.25	7.5	-11.25	-63.75	-71.25	-97.5	-75
1840	-63.75	105	15	0	-52.5	-63.75	-86.25	-67.5
1841	-48.75	86.25	-7.5	-22.5	-75	-86.25	-108.75	-86.25
1842	22.5	112.5	-11.25	-26.25	-78.75	-90	-108.75	-90
1843	45	146.25	7.5	-15	-63.75	-75	-97.5	-75
1844	-18.75	108.75	0	-26.25	-75	-82.5	-108.75	-82.5
1845	-60	52.5	-22.5	-52.5	-101.25	-108.75	-131.25	-108.75
1846	-45	60	-18.75	-52.5	-97.5	-105	-127.5	-101.25
1847	-26.25	86.25	-3.75	-37.5	-82.5	-93.75	-112.5	-90
1848	-3.75	101.25	3.75	-30	-78.75	-90	-108.75	-90
1849	-7.5	93.75	-3.75	-37.5	-82.5	-93.75	-116.25	-93.75
1850	-26.25	82.5	-7.5	-41.25	-90	-97.5	-120	-97.5
1851	-30	90	-11.25	-41.25	-90	-101.25	-120	-101.25
1852	-11.25	101.25	-3.75	-33.75	-86.25	-97.5	-112.5	-93.75
1853	7.5	105	-3.75	-33.75	-82.5	-90	-108.75	-90
1854	11.25	105	-11.25	-41.25	-86.25	-97.5	-116.25	-93.75
1855	-11.25	90	-15	-45	-93.75	-101.25	-120	-97.5
1856	-18.75	93.75	-11.25	-41.25	-90	-101.25	-120	-93.75
1857	-22.5	97.5	-7.5	-41.25	-90	-97.5	-116.25	-90
1858	-37.5	71.25	-18.75	-52.5	-97.5	-105	-127.5	-101.25
1859	-52.5	48.75	-22.5	-60	-108.75	-116.25	-135	-108.75
1860	-33.75	63.75	-15	-52.5	-101.25	-108.75	-127.5	-101.25
1861	-15	86.25	-3.75	-45	-93.75	-101.25	-120	-93.75
1862	0	105	0	-37.5	-90	-101.25	-120	-90
1863	-15	105	3.75	-30	-82.5	-101.25	-116.25	-86.25
1864	-37.5	82.5	-7.5	-41.25	-97.5	-108.75	-123.75	-97.5
1865	-37.5	78.75	-15	-48.75	-105	-112.5	-127.5	-105
1866	-18.75	93.75	-11.25	-45	-93.75	-101.25	-120	-97.5
1867	-11.25	82.5	-18.75	-48.75	-101.25	-105	-127.5	-105
1868	-18.75	75	-18.75	-52.5	-105	-108.75	-127.5	-105
1869	-33.75	75	-15	-52.5	-101.25	-108.75	-123.75	-101.25
1870	-56.25	48.75	-22.5	-63.75	-112.5	-120	-138.75	-112.5
1871	-75	26.25	-30	-71.25	-123.75	-131.25	-146.25	-123.75
1872	-52.5	52.5	-18.75	-63.75	-112.5	-120	-138.75	-112.5
1873	-41.25	67.5	-15	-60	-108.75	-116.25	-135	-108.75
1874	-48.75	67.5	-15	-56.25	-105	-112.5	-131.25	-105
1875	-18.75	108.75	0	-33.75	-90	-93.75	-112.5	-86.25
1876	-41.25	90	-7.5	-45	-101.25	-101.25	-120	-90
1877	-67.5	41.25	-33.75	-67.5	-123.75	-123.75	-142.5	-112.5
1878	-30	67.5	-30	-63.75	-116.25	-120	-138.75	-112.5
1879	-7.5	93.75	-22.5	-56.25	-105	-108.75	-127.5	-105
1880	-22.5	86.25	-22.5	-56.25	-108.75	-112.5	-131.25	-105
1881	-48.75	67.5	-22.5	-60	-108.75	-112.5	-131.25	-105
1882	-56.25	41.25	-30	-75	-120	-123.75	-142.5	-116.25
1883	-41.25	41.25	-30	-71.25	-120	-123.75	-142.5	-116.25
1884	-37.5	63.75	-18.75	-60	-112.5	-112.5	-135	-108.75
1885	-56.25	67.5	-7.5	-52.5	-105	-108.75	-127.5	-101.25
1886	-41.25	71.25	-11.25	-56.25	-105	-112.5	-131.25	-105
1887	-22.5	78.75	-15	-52.5	-105	-112.5	-131.25	-105
1888	-22.5	75	-18.75	-56.25	-108.75	-112.5	-131.25	-101.25
1889	0	101.25	-11.25	-52.5	-101.25	-108.75	-123.75	-93.75
1890	0	112.5	-7.5	-48.75	-97.5	-101.25	-120	-90
1891	-11.25	93.75	-15	-56.25	-108.75	-108.75	-127.5	-93.75
1892	-22.5	78.75	-15	-56.25	-108.75	-108.75	-127.5	-93.75
1893	-33.75	71.25	-18.75	-60	-108.75	-112.5	-131.25	-101.25
1894	-48.75	56.25	-22.5	-63.75	-116.25	-116.25	-135	-108.75
1895	-63.75	56.25	-11.25	-60	-108.75	-112.5	-131.25	-105
1896	-60	75	3.75	-45	-97.5	-97.5	-116.25	-90
1897	-26.25	101.25	11.25	-33.75	-86.25	-90	-108.75	-86.25
1898	0	127.5	18.75	-26.25	-78.75	-86.25	-105	-78.75
1899	0	131.25	26.25	-18.75	-75	-82.5	-101.25	-78.75
1900	-15	108.75	15	-30	-86.25	-97.5	-112.5	-90
1901	-30	93.75	7.5	-41.25	-97.5	-105	-120	-97.5
1902	-41.25	97.5	15	-37.5	-93.75	-101.25	-120	-93.75
1903	-30	120	26.25	-26.25	-82.5	-93.75	-112.5	-86.25
1904	-15	135	33.75	-15	-78.75	-90	-108.75	-82.5
1905	-15	120	30	-22.5	-82.5	-97.5	-112.5	-90
1906	-26.25	108.75	41.25	-18.75	-78.75	-93.75	-112.5	-86.25
1907	-56.25	93.75	52.5	-7.5	-67.5	-82.5	-101.25	-78.75
1908	-48.75	101.25	56.25	0	-60	-75	-93.75	-71.25
1909	-15	120	60	3.75	-60	-75	-90	-71.25
1910	11.25	135	67.5	15	-48.75	-63.75	-82.5	-63.75
1911	18.75	157.5	78.75	26.25	-41.25	-56.25	-75	-52.5
1912	0	142.5	71.25	22.5	-48.75	-63.75	-82.5	-60
1913	-7.5	120	56.25	7.5	-56.25	-75	-93.75	-71.25
1914	3.75	135	56.25	7.5	-56.25	-71.25	-86.25	-67.5
1915	0	150	60	15	-48.75	-60	-78.75	-56.25
1916	-3.75	153.75	52.5	7.5	-48.75	-60	-78.75	-56.25
1917	-3.75	157.5	45	7.5	-48.75	-56.25	-75	-52.5
1918	-3.75	157.5	37.5	3.75	-45	-56.25	-71.25	-48.75
1919	-15	146.25	30	3.75	-41.25	-48.75	-63.75	-41.25
1920	-15	127.5	3.75	-11.25	-52.5	-56.25	-71.25	-48.75
1921	3.75	120	-18.75	-26.25	-67.5	-67.5	-82.5	-60
1922	15	135	-22.5	-22.5	-63.75	-63.75	-82.5	-60
1923	52.5	172.5	-11.25	-3.75	-48.75	-52.5	-67.5	-45
1924	71.25	183.75	-11.25	-7.5	-52.5	-56.25	-71.25	-45
1925	48.75	161.25	-26.25	-26.25	-71.25	-71.25	-86.25	-56.25
1926	52.5	153.75	-41.25	-45	-82.5	-86.25	-97.5	-67.5
1927	63.75	157.5	-41.25	-45	-86.25	-86.25	-101.25	-63.75
1928	52.5	150	-41.25	-48.75	-86.25	-90	-101.25	-63.75
1929	30	127.5	-45	-56.25	-93.75	-93.75	-105	-67.5
1930	15	108.75	-45	-63.75	-97.5	-97.5	-108.75	-71.25
1931	0	86.25	-48.75	-71.25	-108.75	-105	-112.5	-78.75
1932	-15	75	-45	-67.5	-105	-101.25	-112.5	-78.75
1933	3.75	93.75	-30	-52.5	-93.75	-90	-101.25	-71.25
1934	18.75	101.25	-30	-52.5	-93.75	-90	-101.25	-71.25
1935	-15	75	-37.5	-60	-101.25	-101.25	-108.75	-82.5
1936	-30	63.75	-45	-67.5	-108.75	-108.75	-116.25	-86.25
1937	0	97.5	-37.5	-60	-101.25	-101.25	-112.5	-78.75
1938	18.75	131.25	-18.75	-45	-86.25	-86.25	-97.5	-63.75
1939	15	138.75	-7.5	-37.5	-78.75	-78.75	-90	-60
1940	-15	97.5	-26.25	-63.75	-101.25	-101.25	-116.25	-86.25
1941	-60	41.25	-41.25	-82.5	-120	-123.75	-138.75	-108.75
1942	-67.5	30	-30	-75	-116.25	-116.25	-131.25	-101.25
1943	-60	33.75	-26.25	-75	-116.25	-116.25	-127.5	-101.25
1944	-67.5	26.25	-30	-82.5	-127.5	-123.75	-138.75	-108.75
1945	-60	26.25	-33.75	-78.75	-123.75	-123.75	-138.75	-108.75
1946	-48.75	41.25	-33.75	-82.5	-127.5	-127.5	-142.5	-116.25
1947	-30	75	-26.25	-75	-123.75	-127.5	-138.75	-108.75
1948	-30	90	-22.5	-71.25	-120	-123.75	-135	-101.25
1949	-41.25	71.25	-22.5	-71.25	-120	-123.75	-135	-101.25
1950	-26.25	63.75	-33.75	-82.5	-127.5	-131.25	-142.5	-108.75
1951	-41.25	56.25	-37.5	-90	-131.25	-131.25	-146.25	-108.75
1952	-82.5	22.5	-45	-97.5	-142.5	-142.5	-157.5	-120
1953	-75	18.75	-45	-101.25	-146.25	-146.25	-161.25	-127.5
1954	-45	41.25	-41.25	-97.5	-142.5	-142.5	-153.75	-120
1955	-60	37.5	-30	-90	-135	-131.25	-146.25	-112.5
1956	-75	37.5	-26.25	-78.75	-123.75	-123.75	-138.75	-105
1957	-60	26.25	-33.75	-90	-131.25	-131.25	-146.25	-112.5
1958	-56.25	11.25	-45	-97.5	-142.5	-142.5	-153.75	-120
1959	-60	33.75	-37.5	-82.5	-127.5	-131.25	-146.25	-108.75
1960	-48.75	60	-33.75	-78.75	-123.75	-127.5	-138.75	-101.25
1961	-48.75	56.25	-37.5	-86.25	-131.25	-131.25	-146.25	-108.75
1962	-60	52.5	-37.5	-90	-131.25	-135	-150	-108.75
1963	-48.75	56.25	-37.5	-90	-131.25	-135	-150	-108.75
1964	-37.5	56.25	-37.5	-90	-135	-135	-150	-108.75
1965	-37.5	52.5	-37.5	-90	-131.25	-135	-150	-108.75
1966	-26.25	60	-30	-86.25	-127.5	-131.25	-150	-101.25
1967	-3.75	90	-15	-75	-120	-123.75	-138.75	-93.75
1968	-22.5	78.75	-15	-75	-120	-120	-135	-97.5
1969	-93.75	11.25	-37.5	-93.75	-138.75	-135	-153.75	-120
1970	-120	-22.5	-48.75	-101.25	-150	-150	-168.75	-135
1971	-101.25	-3.75	-33.75	-86.25	-138.75	-146.25	-168.75	-135
1972	-86.25	7.5	-11.25	-60	-127.5	-142.5	-168.75	-135
1973	-78.75	0	26.25	-30	-116.25	-150	-180	-150
1974	-67.5	-7.5	71.25	11.25	-112.5	-161.25	-202.5	-172.5
1975	-48.75	-11.25	123.75	52.5	-108.75	-180	-225	-198.75
1976	-45	-30	161.25	82.5	-112.5	-198.75	-251.25	-228.75
1977	-37.5	-30	191.25	112.5	-101.25	-206.25	-258.75	-236.25
1978	-3.75	7.5	228.75	172.5	-63.75	-176.25	-240	-221.25
1979	7.5	45	270	247.5	0	-127.5	-202.5	-191.25
1980	18.75	86.25	300	318.75	60	-78.75	-157.5	-153.75
1981	78.75	138.75	315	375	116.25	-30	-112.5	-108.75
1982	165	213.75	322.5	420	168.75	26.25	-56.25	-56.25
1983	232.5	303.75	333.75	476.25	236.25	105	22.5	22.5
1984	277.5	371.25	333.75	532.5	311.25	191.25	116.25	112.5
1985	330	427.5	292.5	558.75	375	277.5	210	202.5
1986	450	555	258.75	577.5	453.75	382.5	322.5	315
1987	573.75	712.5	217.5	585	540	510	457.5	450
1988	637.5	832.5	161.25	600	630	641.25	600	585
1989	663.75	975	157.5	675	772.5	810	776.25	746.25
1990	727.5	1181.25	131.25	716.25	903.75	993.75	975	945
1991	787.5	1387.5	7.5	660	978.75	1147.5	1166.25	1151.25
1992	828.75	1533.75	-97.5	603.75	1050	1301.25	1346.25	1335
1993	907.5	1597.5	-213.75	491.25	1061.25	1391.25	1458.75	1447.5
1994	937.5	1631.25	-322.5	352.5	1053.75	1455	1552.5	1537.5
1995	862.5	1612.5	-341.25	330	1110	1545	1638.75	1597.5
1996	753.75	1515	-330	330	1166.25	1601.25	1668.75	1590
1997	671.25	1440	-352.5	258.75	1177.5	1623.75	1672.5	1567.5
1998	588.75	1398.75	-382.5	146.25	1128.75	1590	1627.5	1518.75
1999	450	1248.75	-405	11.25	993.75	1428.75	1466.25	1372.5
2000	266.25	1012.5	-390	-101.25	806.25	1181.25	1211.25	1143.75
2001	120	828.75	-356.25	-198.75	596.25	911.25	945	911.25
2002	30	663.75	-378.75	-360	322.5	603.75	660	678.75
2003	-52.5	517.5	-408.75	-521.25	60	318.75	401.25	468.75
2004	-116.25	427.5	-382.5	-592.5	-93.75	138.75	225	315
2005	-161.25	330	-345	-577.5	-150	37.5	97.5	180
2006	-210	217.5	-333.75	-547.5	-168.75	-26.25	3.75	67.5
2007	-236.25	153.75	-337.5	-510	-168.75	-48.75	-37.5	11.25
2008	-195	153.75	-341.25	-461.25	-150	-41.25	-37.5	3.75
2009	-168.75	153.75	-322.5	-405	-131.25	-30	-26.25	11.25
2010	-180	142.5	-292.5	-360	-138.75	-37.5	-26.25	15
2011	-146.25	142.5	-266.25	-326.25	-150	-60	-41.25	3.75
2012	-56.25	153.75	-247.5	-296.25	-153.75	-75	-60	-15
2013	-7.5	153.75	-225	-251.25	-131.25	-71.25	-63.75	-18.75
2014	-15	150	-202.5	-191.25	-93.75	-48.75	-48.75	-7.5
2015	-22.5	157.5	-161.25	-123.75	-45	-11.25	-22.5	11.25
2016	-15	172.5	-108.75	-63.75	-3.75	15	0	26.25
2017	3.75	183.75	-67.5	-30	11.25	22.5	3.75	26.25
2018	22.5	195	-45	-7.5	18.75	22.5	0	26.25
2019	18.75	187.5	-33.75	3.75	22.5	18.75	-7.5	18.75
2020	-7.5	153.75	-30	3.75	15	0	-22.5	3.75
2021	-18.75	131.25	-30	0	3.75	-11.25	-33.75	-11.25
2022	-7.5	127.5	-26.25	-3.75	-7.5	-18.75	-41.25	-18.75
2023	18.75	142.5	-18.75	0	-7.5	-18.75	-45	-15
2024	30	150	-11.25	3.75	-7.5	-18.75	-45	-15
2025	30	142.5	-15	-3.75	-15	-26.25	-52.5	-26.25
2026	37.5	138.75	-11.25	-7.5	-22.5	-33.75	-60	-30
2027	33.75	131.25	-7.5	-7.5	-22.5	-37.5	-63.75	-33.75
2028	26.25	120	-3.75	-3.75	-26.25	-41.25	-67.5	-37.5
2029	15	116.25	0	0	-30	-45	-67.5	-41.25
2030	22.5	135	7.5	7.5	-18.75	-37.5	-63.75	-33.75
2031	0	127.5	3.75	7.5	-22.5	-45	-67.5	-37.5
2032	-33.75	90	-7.5	-3.75	-37.5	-60	-82.5	-52.5
2033	-22.5	78.75	-18.75	-18.75	-52.5	-71.25	-93.75	-60
2034	-3.75	90	-22.5	-18.75	-52.5	-71.25	-90	-60
2035	3.75	101.25	-22.5	-15	-48.75	-71.25	-90	-60
2036	-15	90	-18.75	-15	-48.75	-71.25	-93.75	-63.75
2037	-33.75	75	-15	-18.75	-52.5	-75	-97.5	-63.75
2038	-18.75	67.5	-22.5	-26.25	-63.75	-78.75	-97.5	-63.75
2039	15	90	-15	-18.75	-56.25	-71.25	-86.25	-60
2040	33.75	112.5	0	0	-41.25	-52.5	-75	-48.75
2041	37.5	112.5	-7.5	-3.75	-41.25	-52.5	-75	-56.25
2042	15	116.25	0	7.5	-33.75	-45	-67.5	-45
2043	-7.5	131.25	11.25	22.5	-18.75	-33.75	-52.5	-30
2044	22.5	142.5	3.75	15	-22.5	-41.25	-60	-33.75
2045	60	142.5	-3.75	11.25	-30	-48.75	-67.5	-41.25
2046	48.75	120	-11.25	0	-37.5	-56.25	-75	-48.75
2047	30	101.25	-22.5	-11.25	-48.75	-67.5	-82.5	-56.25
2048	26.25	105	-22.5	-7.5	-45	-63.75	-78.75	-56.25
2049	37.5	127.5	-7.5	3.75	-30	-48.75	-67.5	-41.25
2050	78.75	157.5	3.75	15	-22.5	-37.5	-56.25	-33.75
2051	105	176.25	7.5	18.75	-18.75	-33.75	-52.5	-30
2052	71.25	157.5	0	18.75	-22.5	-41.25	-60	-37.5
2053	15	108.75	-11.25	11.25	-26.25	-52.5	-67.5	-48.75
2054	30	127.5	-3.75	18.75	-18.75	-41.25	-56.25	-37.5
2055	56.25	153.75	0	30	-7.5	-33.75	-45	-26.25
2056	41.25	116.25	-18.75	15	-26.25	-45	-60	-37.5
2057	71.25	131.25	-22.5	11.25	-26.25	-45	-60	-37.5
2058	101.25	168.75	-7.5	26.25	-11.25	-30	-45	-22.5
2059	75	153.75	-11.25	22.5	-15	-33.75	-48.75	-26.25
2060	45	138.75	-7.5	26.25	-11.25	-30	-45	-22.5
2061	7.5	112.5	-3.75	30	-7.5	-26.25	-41.25	-18.75
2062	15	112.5	-7.5	30	-7.5	-26.25	-41.25	-18.75
2063	67.5	146.25	0	33.75	0	-15	-33.75	-15
2064	105	165	-7.5	33.75	-3.75	-18.75	-37.5	-22.5
2065	116.25	165	-15	26.25	-11.25	-30	-45	-26.25
2066	112.5	180	-3.75	37.5	-3.75	-18.75	-37.5	-15
2067	112.5	191.25	0	52.5	11.25	-11.25	-26.25	-3.75
2068	90	168.75	-7.5	48.75	3.75	-15	-30	-7.5
2069	71.25	146.25	-15	37.5	-7.5	-22.5	-33.75	-11.25
2070	63.75	135	-22.5	33.75	-7.5	-22.5	-37.5	-15
2071	60	135	-22.5	37.5	-3.75	-18.75	-33.75	-15
2072	82.5	153.75	-15	41.25	0	-11.25	-26.25	-7.5
2073	123.75	183.75	-15	45	7.5	-7.5	-22.5	-3.75
2074	116.25	187.5	-3.75	56.25	18.75	7.5	-11.25	7.5
2075	116.25	187.5	0	60	22.5	7.5	-7.5	11.25
2076	112.5	172.5	-11.25	52.5	11.25	0	-15	0
2077	48.75	116.25	-26.25	37.5	0	-11.25	-26.25	-11.25
2078	56.25	135	-18.75	48.75	11.25	-3.75	-18.75	0
2079	120	198.75	-11.25	63.75	26.25	11.25	-3.75	15
2080	108.75	176.25	-26.25	52.5	11.25	0	-11.25	7.5
2081	101.25	165	-30	48.75	11.25	0	-11.25	7.5
2082	135	195	-22.5	60	22.5	11.25	0	15
2083	180	228.75	-15	67.5	30	22.5	7.5	26.25
2084	176.25	225	-11.25	71.25	30	22.5	11.25	30
2085	123.75	187.5	-18.75	67.5	26.25	18.75	3.75	22.5
2086	123.75	195	-15	67.5	30	22.5	7.5	26.25
2087	161.25	217.5	-15	71.25	33.75	30	11.25	30
2088	176.25	217.5	-18.75	67.5	30	22.5	7.5	26.25
2089	146.25	206.25	-22.5	71.25	30	22.5	11.25	26.25
2090	135	221.25	-7.5	86.25	45	37.5	26.25	45
2091	150	232.5	-15	86.25	41.25	33.75	26.25	45
2092	180	232.5	-33.75	67.5	30	22.5	11.25	33.75
2093	195	228.75	-37.5	63.75	26.25	18.75	7.5	30
2094	172.5	210	-37.5	67.5	26.25	22.5	11.25	33.75
2095	161.25	202.5	-41.25	63.75	22.5	18.75	11.25	33.75
2096	161.25	210	-30	71.25	33.75	30	22.5	45
2097	157.5	206.25	-33.75	63.75	30	26.25	22.5	45
2098	176.25	217.5	-33.75	67.5	30	33.75	30	48.75
2099	195	225	-37.5	63.75	26.25	26.25	26.25	45
2100	206.25	236.25	-33.75	67.5	30	30	26.25	48.75
2101	187.5	228.75	-30	71.25	33.75	33.75	33.75	56.25
2102	176.25	232.5	-30	75	37.5	33.75	33.75	56.25
2103	228.75	281.25	-22.5	86.25	45	41.25	45	67.5
2104	236.25	285	-30	78.75	37.5	37.5	41.25	63.75
2105	202.5	243.75	-48.75	56.25	18.75	22.5	26.25	48.75
2106	183.75	213.75	-63.75	45	3.75	7.5	11.25	37.5
2107	187.5	228.75	-52.5	52.5	15	18.75	22.5	48.75
2108	202.5	240	-52.5	52.5	11.25	18.75	22.5	52.5
2109	213.75	240	-48.75	52.5	15	18.75	26.25	56.25
2110	198.75	236.25	-37.5	60	22.5	22.5	30	67.5
2111	191.25	232.5	-37.5	60	18.75	22.5	33.75	71.25
2112	210	240	-41.25	56.25	11.25	22.5	33.75	67.5
2113	210	240	-41.25	56.25	7.5	22.5	30	63.75
2114	228.75	262.5	-33.75	63.75	18.75	33.75	37.5	71.25
2115	251.25	281.25	-33.75	71.25	22.5	33.75	45	75
2116	247.5	270	-37.5	63.75	15	26.25	37.5	71.25
2117	228.75	251.25	-45	52.5	3.75	15	26.25	63.75
2118	206.25	255	-33.75	63.75	15	26.25	37.5	75
2119	217.5	285	-22.5	71.25	22.5	37.5	48.75	86.25
2120	232.5	277.5	-33.75	56.25	7.5	22.5	33.75	71.25
2121	217.5	232.5	-52.5	37.5	-15	0	11.25	48.75
2122	191.25	210	-52.5	30	-22.5	-7.5	3.75	41.25
2123	187.5	228.75	-33.75	45	-7.5	3.75	15	52.5
2124	202.5	251.25	-26.25	52.5	-3.75	7.5	15	56.25
2125	217.5	258.75	-30	48.75	-7.5	0	11.25	48.75
2126	232.5	277.5	-22.5	60	-3.75	7.5	18.75	56.25
2127	225	281.25	-18.75	67.5	0	7.5	18.75	56.25
2128	217.5	270	-26.25	52.5	-15	-7.5	3.75	45
2129	225	277.5	-26.25	52.5	-15	-7.5	3.75	45
2130	210	266.25	-30	45	-18.75	-11.25	0	41.25
2131	183.75	236.25	-30	45	-22.5	-18.75	-7.5	30
2132	180	221.25	-26.25	45	-26.25	-22.5	-15	22.5
2133	180	225	-15	45	-22.5	-22.5	-15	22.5
2134	165	221.25	-3.75	52.5	-18.75	-18.75	-15	22.5
2135	150	202.5	-3.75	48.75	-22.5	-26.25	-22.5	11.25
2136	172.5	225	3.75	56.25	-18.75	-22.5	-18.75	15
2137	180	251.25	18.75	71.25	-7.5	-11.25	-7.5	22.5
2138	168.75	258.75	30	82.5	3.75	-3.75	-3.75	30
2139	157.5	247.5	26.25	82.5	0	-7.5	-7.5	22.5
2140	138.75	217.5	15	67.5	-15	-22.5	-22.5	3.75
2141	135	217.5	18.75	63.75	-15	-26.25	-26.25	0
2142	138.75	228.75	30	71.25	-7.5	-18.75	-18.75	7.5
2143	138.75	217.5	22.5	63.75	-15	-26.25	-30	-3.75
2144	123.75	195	15	56.25	-22.5	-33.75	-37.5	-11.25
2145	86.25	161.25	18.75	48.75	-26.25	-37.5	-41.25	-15
2146	67.5	135	15	41.25	-33.75	-45	-52.5	-26.25
2147	67.5	142.5	26.25	48.75	-26.25	-37.5	-45	-22.5
2148	56.25	142.5	33.75	52.5	-22.5	-33.75	-45	-22.5
2149	41.25	135	33.75	52.5	-26.25	-45	-52.5	-30
2150	48.75	150	41.25	60	-15	-37.5	-48.75	-26.25
2151	48.75	142.5	37.5	52.5	-22.5	-45	-56.25	-33.75
2152	41.25	131.25	26.25	37.5	-37.5	-56.25	-71.25	-45
2153	7.5	127.5	33.75	41.25	-30	-45	-60	-41.25
2154	18.75	138.75	37.5	45	-22.5	-41.25	-56.25	-37.5
2155	60	161.25	37.5	41.25	-26.25	-41.25	-60	-41.25
2156	52.5	146.25	33.75	30	-33.75	-48.75	-63.75	-45
2157	22.5	108.75	30	26.25	-41.25	-56.25	-71.25	-52.5
2158	15	108.75	33.75	26.25	-41.25	-52.5	-67.5	-52.5
2159	11.25	120	41.25	26.25	-41.25	-52.5	-67.5	-52.5
2160	-3.75	105	41.25	26.25	-41.25	-56.25	-71.25	-56.25
2161	0	105	41.25	26.25	-41.25	-56.25	-71.25	-60
2162	0	116.25	45	26.25	-41.25	-56.25	-71.25	-60
2163	48.75	157.5	45	30	-37.5	-60	-75	-56.25
2164	78.75	157.5	37.5	22.5	-45	-67.5	-82.5	-60
2165	37.5	116.25	33.75	11.25	-56.25	-71.25	-86.25	-60
2166	-3.75	116.25	41.25	15	-45	-60	-71.25	-52.5
2167	-3.75	138.75	52.5	26.25	-37.5	-45	-60	-48.75
2168	0	112.5	41.25	7.5	-52.5	-60	-78.75	-67.5
2169	-30	63.75	18.75	-18.75	-78.75	-86.25	-105	-90
2170	-22.5	63.75	18.75	-22.5	-78.75	-86.25	-105	-90
2171	-7.5	78.75	30	-11.25	-71.25	-78.75	-93.75	-78.75
2172	-33.75	63.75	30	-11.25	-71.25	-78.75	-97.5	-82.5
2173	-45	71.25	37.5	-3.75	-60	-71.25	-90	-75
2174	-30	97.5	45	7.5	-52.5	-60	-78.75	-63.75
2175	-18.75	97.5	33.75	-3.75	-63.75	-71.25	-86.25	-75
2176	-11.25	90	22.5	-15	-78.75	-82.5	-97.5	-82.5
2177	0	112.5	30	-11.25	-71.25	-75	-90	-75
2178	-7.5	116.25	37.5	-7.5	-63.75	-71.25	-86.25	-71.25
2179	-56.25	75	26.25	-15	-75	-82.5	-101.25	-86.25
2180	-48.75	48.75	7.5	-37.5	-93.75	-101.25	-120	-105
2181	-33.75	37.5	0	-48.75	-101.25	-108.75	-127.5	-108.75
2182	-48.75	37.5	11.25	-37.5	-90	-97.5	-116.25	-97.5
2183	-37.5	60	18.75	-30	-78.75	-82.5	-105	-93.75
2184	-33.75	71.25	22.5	-22.5	-75	-82.5	-97.5	-90
2185	-22.5	93.75	37.5	-7.5	-60	-67.5	-82.5	-71.25
2186	-7.5	120	48.75	7.5	-45	-56.25	-71.25	-60
2187	-45	86.25	30	-7.5	-63.75	-75	-93.75	-78.75
2188	-78.75	48.75	7.5	-30	-86.25	-93.75	-112.5	-97.5
2189	-37.5	78.75	15	-22.5	-78.75	-86.25	-105	-90
2190	0	108.75	22.5	-15	-67.5	-75	-93.75	-78.75
2191	-7.5	97.5	22.5	-18.75	-71.25	-78.75	-97.5	-82.5
2192	-30	71.25	11.25	-30	-82.5	-93.75	-112.5	-97.5
2193	-30	63.75	15	-33.75	-82.5	-93.75	-112.5	-101.25
2194	-30	75	30	-18.75	-71.25	-78.75	-97.5	-90
2195	-30	105	52.5	7.5	-45	-52.5	-71.25	-63.75
2196	-33.75	116.25	60	11.25	-41.25	-45	-63.75	-56.25
2197	-41.25	93.75	41.25	-3.75	-56.25	-60	-78.75	-71.25
2198	-22.5	97.5	33.75	-7.5	-60	-63.75	-86.25	-78.75
2199	-3.75	116.25	33.75	-3.75	-56.25	-60	-82.5	-78.75
2200	15	138.75	33.75	0	-52.5	-60	-82.5	-75
2201	11.25	138.75	33.75	0	-52.5	-56.25	-82.5	-75
2202	-18.75	108.75	26.25	-7.5	-60	-60	-86.25	-75
2203	-30	90	18.75	-11.25	-63.75	-63.75	-90	-78.75
2204	-41.25	67.5	15	-18.75	-67.5	-67.5	-93.75	-86.25
2205	-56.25	56.25	15	-22.5	-71.25	-71.25	-97.5	-86.25
2206	-45	71.25	18.75	-22.5	-67.5	-67.5	-93.75	-86.25
2207	-26.25	90	26.25	-15	-60	-60	-90	-82.5
2208	-7.5	108.75	33.75	-3.75	-48.75	-52.5	-78.75	-71.25
2209	-22.5	97.5	33.75	-3.75	-48.75	-52.5	-78.75	-71.25
2210	-48.75	86.25	33.75	-3.75	-48.75	-56.25	-82.5	-75
2211	-37.5	101.25	33.75	3.75	-48.75	-52.5	-78.75	-67.5
2212	7.5	123.75	26.25	0	-45	-52.5	-75	-67.5
2213	0	120	22.5	-7.5	-48.75	-52.5	-78.75	-71.25
2214	-30	108.75	26.25	-7.5	-48.75	-52.5	-78.75	-71.25
2215	-26.25	112.5	26.25	-3.75	-48.75	-52.5	-78.75	-71.25
2216	-30	86.25	11.25	-18.75	-60	-63.75	-90	-82.5
2217	-52.5	63.75	7.5	-26.25	-67.5	-67.5	-97.5	-90
2218	-48.75	78.75	18.75	-15	-56.25	-56.25	-86.25	-78.75
2219	-18.75	108.75	30	-3.75	-45	-45	-75	-67.5
2220	-3.75	123.75	30	-3.75	-48.75	-48.75	-78.75	-71.25
2221	3.75	131.25	33.75	0	-45	-45	-75	-67.5
2222	3.75	142.5	41.25	11.25	-33.75	-41.25	-67.5	-60
2223	7.5	138.75	30	7.5	-41.25	-45	-75	-63.75
2224	-22.5	97.5	11.25	-18.75	-63.75	-67.5	-93.75	-86.25
2225	-45	93.75	7.5	-22.5	-60	-63.75	-90	-82.5
2226	-22.5	120	18.75	-7.5	-48.75	-48.75	-75	-63.75
2227	-11.25	120	18.75	-7.5	-48.75	-48.75	-75	-63.75
2228	-56.25	78.75	11.25	-18.75	-60	-56.25	-82.5	-71.25
2229	-90	48.75	0	-30	-71.25	-67.5	-90	-82.5
2230	-45	71.25	7.5	-30	-67.5	-67.5	-90	-82.5
2231	0	108.75	22.5	-15	-56.25	-52.5	-75	-67.5
2232	0	112.5	26.25	-7.5	-48.75	-48.75	-71.25	-63.75
2233	30	135	33.75	3.75	-41.25	-48.75	-71.25	-60
2234	45	161.25	41.25	11.25	-37.5	-45	-71.25	-52.5
2235	7.5	146.25	30	3.75	-45	-52.5	-75	-56.25
2236	-26.25	120	15	-7.5	-56.25	-56.25	-78.75	-63.75
2237	-22.5	105	7.5	-18.75	-60	-60	-82.5	-71.25
2238	-18.75	93.75	0	-26.25	-67.5	-67.5	-90	-78.75
2239	-22.5	93.75	0	-30	-71.25	-67.5	-90	-78.75
2240	-18.75	101.25	3.75	-26.25	-71.25	-63.75	-90	-75
2241	-33.75	86.25	0	-37.5	-75	-71.25	-93.75	-78.75
2242	-67.5	60	-7.5	-45	-86.25	-78.75	-97.5	-82.5
2243	-63.75	75	7.5	-30	-67.5	-67.5	-90	-75
2244	-37.5	101.25	15	-22.5	-60	-60	-82.5	-71.25
2245	-15	120	15	-18.75	-60	-60	-82.5	-63.75
2246	3.75	138.75	18.75	-11.25	-52.5	-52.5	-75	-56.25
2247	-3.75	135	11.25	-15	-56.25	-56.25	-78.75	-60
2248	-26.25	105	0	-30	-71.25	-67.5	-90	-71.25
2249	-33.75	90	-7.5	-41.25	-78.75	-75	-93.75	-75
2250	-18.75	105	-7.5	-37.5	-75	-71.25	-93.75	-71.25
2251	-15	105	-3.75	-33.75	-75	-67.5	-90	-67.5
2252	-45	75	-7.5	-41.25	-82.5	-75	-97.5	-75
2253	-60	63.75	-7.5	-45	-82.5	-78.75	-97.5	-78.75
2254	-30	90	0	-41.25	-75	-71.25	-93.75	-71.25
2255	3.75	116.25	7.5	-33.75	-71.25	-67.5	-90	-67.5
2256	-22.5	97.5	3.75	-41.25	-75	-75	-97.5	-71.25
2257	-56.25	71.25	-3.75	-48.75	-86.25	-82.5	-101.25	-78.75
2258	-26.25	93.75	0	-37.5	-75	-71.25	-93.75	-67.5
2259	30	131.25	-3.75	-33.75	-75	-71.25	-93.75	-67.5
2260	33.75	142.5	3.75	-33.75	-67.5	-67.5	-90	-63.75
2261	-22.5	127.5	7.5	-30	-63.75	-63.75	-82.5	-56.25
2262	-33.75	127.5	11.25	-30	-63.75	-60	-82.5	-56.25
2263	0	127.5	0	-45	-78.75	-75	-93.75	-67.5
2264	-11.25	86.25	-18.75	-63.75	-97.5	-97.5	-116.25	-86.25
2265	-71.25	26.25	-33.75	-82.5	-116.25	-112.5	-131.25	-101.25
2266	-82.5	30	-30	-75	-112.5	-108.75	-127.5	-97.5
2267	-41.25	78.75	-11.25	-60	-93.75	-90	-112.5	-86.25
2268	-33.75	82.5	-15	-63.75	-97.5	-93.75	-116.25	-93.75
2269	-37.5	78.75	-15	-63.75	-97.5	-90	-116.25	-93.75
2270	-26.25	101.25	-3.75	-48.75	-82.5	-78.75	-105	-82.5
2271	-15	116.25	0	-41.25	-75	-75	-97.5	-71.25
2272	-11.25	108.75	-3.75	-48.75	-82.5	-82.5	-101.25	-75
2273	-22.5	93.75	-11.25	-56.25	-90	-90	-108.75	-78.75
2274	-22.5	97.5	-7.5	-56.25	-90	-86.25	-105	-75
2275	-41.25	78.75	-18.75	-67.5	-101.25	-93.75	-116.25	-86.25
2276	-41.25	67.5	-22.5	-71.25	-105	-97.5	-120	-93.75
2277	-18.75	86.25	-11.25	-63.75	-93.75	-90	-108.75	-86.25
2278	-37.5	71.25	-15	-71.25	-101.25	-93.75	-116.25	-93.75
2279	-60	52.5	-22.5	-78.75	-112.5	-105	-123.75	-101.25
2280	-52.5	63.75	-11.25	-67.5	-101.25	-93.75	-112.5	-90
2281	-37.5	86.25	0	-52.5	-90	-82.5	-101.25	-78.75
2282	-18.75	112.5	7.5	-37.5	-78.75	-75	-93.75	-63.75
2283	-3.75	116.25	3.75	-41.25	-82.5	-78.75	-97.5	-67.5
2284	3.75	105	-7.5	-56.25	-93.75	-90	-108.75	-78.75
2285	7.5	112.5	-7.5	-52.5	-93.75	-90	-108.75	-78.75
2286	-18.75	97.5	-11.25	-60	-97.5	-90	-112.5	-82.5
2287	-33.75	71.25	-26.25	-78.75	-116.25	-108.75	-131.25	-97.5
2288	-41.25	52.5	-33.75	-82.5	-120	-116.25	-138.75	-105
2289	-60	45	-30	-82.5	-120	-112.5	-135	-105
2290	-82.5	56.25	-11.25	-67.5	-105	-97.5	-120	-90
2291	-108.75	48.75	-3.75	-60	-97.5	-93.75	-116.25	-86.25
2292	-90	45	-7.5	-63.75	-105	-101.25	-123.75	-93.75
2293	-41.25	71.25	-11.25	-67.5	-112.5	-105	-127.5	-97.5
2294	-18.75	101.25	-7.5	-63.75	-105	-97.5	-120	-90
2295	-37.5	90	-15	-63.75	-108.75	-105	-123.75	-93.75
2296	-48.75	63.75	-22.5	-75	-116.25	-116.25	-138.75	-105
2297	-30	75	-15	-71.25	-105	-105	-123.75	-90
2298	-11.25	97.5	-15	-63.75	-105	-97.5	-112.5	-78.75
2299	-33.75	86.25	-11.25	-63.75	-105	-93.75	-108.75	-78.75
2300	-37.5	75	-15	-67.5	-105	-93.75	-112.5	-86.25
2301	-11.25	90	-11.25	-63.75	-101.25	-90	-108.75	-82.5
2302	-45	67.5	-11.25	-71.25	-108.75	-93.75	-112.5	-86.25
2303	-93.75	33.75	-18.75	-75	-116.25	-101.25	-120	-93.75
2304	-86.25	41.25	-18.75	-75	-112.5	-101.25	-120	-93.75
2305	-52.5	75	-7.5	-63.75	-101.25	-90	-108.75	-82.5
2306	-22.5	101.25	0	-52.5	-93.75	-86.25	-105	-75
2307	-18.75	97.5	-11.25	-56.25	-101.25	-93.75	-112.5	-82.5
2308	-30	86.25	-18.75	-63.75	-108.75	-97.5	-120	-90
2309	-37.5	90	-15	-63.75	-105	-93.75	-116.25	-86.25
2310	-33.75	93.75	-11.25	-63.75	-101.25	-93.75	-116.25	-86.25
2311	3.75	120	0	-52.5	-93.75	-86.25	-105	-78.75
2312	15	135	3.75	-48.75	-90	-78.75	-101.25	-75
2313	-18.75	123.75	11.25	-41.25	-82.5	-71.25	-97.5	-71.25
2314	-22.5	123.75	22.5	-37.5	-78.75	-67.5	-90	-67.5
2315	-37.5	108.75	18.75	-41.25	-86.25	-78.75	-101.25	-78.75
2316	-67.5	78.75	15	-41.25	-90	-82.5	-108.75	-86.25
2317	-60	86.25	15	-45	-93.75	-86.25	-108.75	-86.25
2318	-33.75	120	30	-30	-78.75	-78.75	-97.5	-78.75
2319	-30	127.5	37.5	-18.75	-71.25	-71.25	-93.75	-71.25
2320	-26.25	120	37.5	-22.5	-75	-71.25	-97.5	-75
2321	-7.5	131.25	45	-11.25	-63.75	-60	-86.25	-67.5
2322	11.25	150	52.5	-3.75	-56.25	-48.75	-71.25	-56.25
2323	0	142.5	56.25	0	-52.5	-45	-67.5	-52.5
2324	3.75	138.75	60	0	-56.25	-52.5	-78.75	-56.25
2325	11.25	146.25	67.5	3.75	-48.75	-48.75	-78.75	-60
2326	15	161.25	71.25	3.75	-48.75	-48.75	-78.75	-63.75
2327	15	172.5	75	7.5	-48.75	-48.75	-75	-60
2328	-18.75	138.75	67.5	0	-56.25	-52.5	-78.75	-67.5
2329	-60	123.75	75	11.25	-45	-41.25	-67.5	-56.25
2330	-37.5	165	78.75	22.5	-33.75	-30	-56.25	-37.5
2331	0	180	60	11.25	-41.25	-37.5	-60	-41.25
2332	15	165	37.5	-3.75	-56.25	-48.75	-71.25	-48.75
2333	-7.5	146.25	26.25	-7.5	-56.25	-48.75	-71.25	-45
2334	-30	150	26.25	0	-45	-33.75	-56.25	-30
2335	-11.25	161.25	11.25	-7.5	-45	-33.75	-56.25	-30
2336	33.75	150	-18.75	-33.75	-71.25	-56.25	-78.75	-48.75
2337	56.25	153.75	-22.5	-37.5	-75	-60	-78.75	-48.75
2338	30	157.5	-3.75	-22.5	-60	-45	-63.75	-33.75
2339	-11.25	138.75	-7.5	-22.5	-60	-41.25	-63.75	-33.75
2340	-3.75	135	-18.75	-33.75	-67.5	-52.5	-71.25	-45
2341	33.75	153.75	-26.25	-41.25	-78.75	-63.75	-78.75	-48.75
2342	56.25	172.5	-30	-45	-82.5	-71.25	-86.25	-52.5
2343	48.75	161.25	-33.75	-56.25	-93.75	-82.5	-97.5	-63.75
2344	30	146.25	-37.5	-63.75	-101.25	-86.25	-105	-67.5
2345	18.75	142.5	-33.75	-63.75	-97.5	-82.5	-97.5	-60
