samplenr	I	II	V1	V2	V3	V4	V5	V6	measurement
0	82.5	75	-41.25	18.75	-56.25	-56.25	-56.25	-63.75
1	90	82.5	-41.25	22.5	-63.75	-63.75	-63.75	-71.25
2	101.25	90	-45	26.25	-75	-75	-75	-82.5
3	108.75	93.75	-45	33.75	-82.5	-82.5	-78.75	-90
4	116.25	93.75	-45	37.5	-86.25	-86.25	-86.25	-93.75
5	120	90	-45	41.25	-90	-90	-90	-93.75
6	120	86.25	-41.25	41.25	-93.75	-97.5	-93.75	-97.5
7	123.75	82.5	-41.25	41.25	-97.5	-101.25	-97.5	-97.5
8	127.5	75	-41.25	41.25	-101.25	-105	-101.25	-105
9	131.25	75	-37.5	41.25	-108.75	-116.25	-108.75	-108.75
10	131.25	75	-41.25	33.75	-116.25	-123.75	-116.25	-112.5
11	127.5	75	-37.5	33.75	-123.75	-127.5	-123.75	-120
12	120	78.75	-37.5	30	-127.5	-135	-127.5	-123.75
13	112.5	86.25	-30	26.25	-127.5	-135	-131.25	-131.25
14	101.25	86.25	-30	22.5	-131.25	-138.75	-135	-135
15	93.75	90	-26.25	18.75	-131.25	-142.5	-138.75	-138.75
16	82.5	90	-22.5	15	-135	-142.5	-142.5	-142.5
17	75	90	-22.5	11.25	-135	-146.25	-142.5	-146.25
18	71.25	93.75	-18.75	7.5	-138.75	-150	-146.25	-150
19	67.5	93.75	-18.75	7.5	-142.5	-157.5	-153.75	-153.75
20	67.5	93.75	-18.75	0	-150	-161.25	-161.25	-165
21	67.5	93.75	-18.75	-3.75	-157.5	-168.75	-168.75	-168.75
22	67.5	93.75	-22.5	-7.5	-161.25	-176.25	-176.25	-176.25
23	60	90	-18.75	-11.25	-168.75	-180	-180	-183.75
24	56.25	82.5	-22.5	-15	-172.5	-183.75	-180	-183.75
25	48.75	78.75	-22.5	-22.5	-176.25	-187.5	-183.75	-187.5
26	37.5	67.5	-18.75	-22.5	-180	-187.5	-183.75	-191.25
27	26.25	56.25	-18.75	-30	-176.25	-187.5	-183.75	-191.25
28	15	45	-15	-26.25	-176.25	-183.75	-180	-187.5
29	7.5	33.75	-11.25	-30	-176.25	-183.75	-183.75	-191.25
30	0	22.5	-7.5	-30	-172.5	-180	-180	-187.5
31	0	15	-3.75	-33.75	-176.25	-183.75	-180	-191.25
32	-3.75	7.5	0	-30	-172.5	-183.75	-180	-187.5
33	0	0	0	-33.75	-176.25	-183.75	-183.75	-187.5
34	-7.5	-7.5	0	-37.5	-180	-191.25	-187.5	-191.25
35	-7.5	-11.25	0	-41.25	-180	-191.25	-191.25	-191.25
36	-15	-11.25	0	-41.25	-183.75	-195	-195	-195
37	-18.75	-18.75	0	-45	-187.5	-198.75	-195	-198.75
38	-30	-18.75	0	-48.75	-191.25	-198.75	-198.75	-202.5
39	-33.75	-18.75	0	-56.25	-195	-202.5	-202.5	-206.25
40	-41.25	-26.25	-3.75	-63.75	-198.75	-206.25	-206.25	-206.25
41	-48.75	-30	-7.5	-71.25	-206.25	-210	-206.25	-210
42	-48.75	-33.75	-11.25	-75	-206.25	-213.75	-210	-213.75
43	-52.5	-37.5	-11.25	-78.75	-213.75	-217.5	-213.75	-217.5
44	-52.5	-37.5	-15	-86.25	-221.25	-217.5	-217.5	-221.25
45	-52.5	-37.5	-22.5	-93.75	-221.25	-225	-221.25	-228.75
46	-48.75	-37.5	-26.25	-97.5	-228.75	-228.75	-228.75	-228.75
47	-56.25	-30	-26.25	-101.25	-232.5	-232.5	-228.75	-228.75
48	-56.25	-30	-33.75	-105	-236.25	-236.25	-236.25	-232.5
49	-60	-26.25	-37.5	-108.75	-240	-240	-236.25	-236.25
50	-63.75	-22.5	-41.25	-112.5	-240	-240	-236.25	-236.25
51	-63.75	-26.25	-37.5	-116.25	-240	-240	-240	-236.25
52	-67.5	-30	-45	-116.25	-240	-240	-236.25	-240
53	-71.25	-33.75	-37.5	-116.25	-243.75	-236.25	-236.25	-240
54	-71.25	-41.25	-37.5	-116.25	-240	-236.25	-236.25	-236.25
55	-75	-45	-37.5	-116.25	-240	-236.25	-236.25	-240
56	-71.25	-48.75	-33.75	-116.25	-240	-236.25	-236.25	-240
57	-75	-52.5	-30	-112.5	-236.25	-236.25	-232.5	-236.25
58	-71.25	-52.5	-33.75	-112.5	-236.25	-232.5	-232.5	-240
59	-71.25	-56.25	-26.25	-112.5	-232.5	-232.5	-232.5	-232.5
60	-71.25	-60	-26.25	-112.5	-232.5	-232.5	-228.75	-232.5
61	-71.25	-60	-22.5	-108.75	-232.5	-228.75	-228.75	-232.5
62	-67.5	-56.25	-26.25	-112.5	-232.5	-228.75	-228.75	-232.5
63	-67.5	-52.5	-30	-116.25	-236.25	-232.5	-232.5	-236.25
64	-67.5	-45	-30	-116.25	-240	-236.25	-232.5	-236.25
65	-71.25	-37.5	-37.5	-120	-240	-236.25	-236.25	-236.25
66	-67.5	-26.25	-41.25	-123.75	-243.75	-240	-236.25	-243.75
67	-67.5	-22.5	-45	-127.5	-243.75	-243.75	-236.25	-243.75
68	-67.5	-18.75	-48.75	-127.5	-247.5	-247.5	-236.25	-243.75
69	-63.75	-18.75	-52.5	-127.5	-247.5	-247.5	-236.25	-243.75
70	-67.5	-22.5	-48.75	-127.5	-247.5	-247.5	-240	-240
71	-67.5	-26.25	-48.75	-127.5	-243.75	-243.75	-236.25	-240
72	-63.75	-33.75	-48.75	-123.75	-243.75	-243.75	-240	-240
73	-63.75	-37.5	-48.75	-123.75	-240	-240	-240	-236.25
74	-60	-37.5	-48.75	-123.75	-240	-240	-240	-236.25
75	-60	-37.5	-48.75	-123.75	-240	-236.25	-236.25	-240
76	-56.25	-33.75	-48.75	-120	-240	-236.25	-236.25	-240
77	-56.25	-26.25	-48.75	-123.75	-236.25	-232.5	-236.25	-236.25
78	-56.25	-22.5	-45	-123.75	-240	-232.5	-232.5	-240
79	-56.25	-18.75	-48.75	-120	-236.25	-232.5	-236.25	-236.25
80	-52.5	-15	-48.75	-120	-236.25	-228.75	-228.75	-236.25
81	-52.5	-11.25	-45	-120	-232.5	-228.75	-225	-232.5
82	-56.25	-11.25	-45	-116.25	-232.5	-228.75	-225	-232.5
83	-52.5	-11.25	-45	-116.25	-228.75	-228.75	-225	-232.5
84	-56.25	-11.25	-45	-116.25	-225	-225	-221.25	-228.75
85	-60	-11.25	-45	-116.25	-225	-225	-217.5	-221.25
86	-60	-15	-37.5	-108.75	-221.25	-221.25	-217.5	-221.25
87	-60	-11.25	-41.25	-112.5	-225	-221.25	-217.5	-221.25
88	-60	-18.75	-33.75	-105	-221.25	-221.25	-213.75	-217.5
89	-60	-15	-33.75	-105	-221.25	-221.25	-217.5	-217.5
90	-63.75	-15	-33.75	-101.25	-221.25	-221.25	-217.5	-221.25
91	-63.75	-15	-41.25	-108.75	-221.25	-221.25	-217.5	-221.25
92	-60	-15	-37.5	-105	-221.25	-221.25	-217.5	-221.25
93	-63.75	-18.75	-45	-108.75	-221.25	-221.25	-217.5	-221.25
94	-63.75	-15	-45	-112.5	-221.25	-221.25	-221.25	-225
95	-63.75	-15	-48.75	-108.75	-221.25	-221.25	-217.5	-225
96	-63.75	-15	-48.75	-108.75	-225	-225	-217.5	-228.75
97	-63.75	-15	-48.75	-112.5	-225	-225	-217.5	-228.75
98	-63.75	-11.25	-48.75	-112.5	-228.75	-228.75	-221.25	-228.75
99	-63.75	-11.25	-48.75	-116.25	-225	-225	-221.25	-225
100	-63.75	-7.5	-45	-116.25	-228.75	-225	-221.25	-228.75
101	-60	-7.5	-48.75	-112.5	-228.75	-225	-221.25	-221.25
102	-60	-3.75	-45	-116.25	-228.75	-225	-221.25	-221.25
103	-56.25	0	-45	-116.25	-228.75	-228.75	-221.25	-221.25
104	-56.25	3.75	-48.75	-116.25	-232.5	-225	-221.25	-225
105	-52.5	3.75	-48.75	-120	-232.5	-225	-221.25	-221.25
106	-52.5	0	-52.5	-116.25	-232.5	-225	-221.25	-225
107	-52.5	0	-56.25	-116.25	-228.75	-225	-217.5	-225
108	-52.5	-3.75	-48.75	-116.25	-232.5	-221.25	-217.5	-225
109	-52.5	-11.25	-52.5	-120	-228.75	-225	-217.5	-225
110	-52.5	-22.5	-52.5	-120	-228.75	-221.25	-213.75	-225
111	-56.25	-26.25	-52.5	-120	-225	-221.25	-213.75	-225
112	-56.25	-26.25	-52.5	-120	-228.75	-221.25	-213.75	-225
113	-60	-22.5	-56.25	-123.75	-228.75	-221.25	-217.5	-221.25
114	-60	-15	-60	-127.5	-228.75	-225	-217.5	-228.75
115	-60	-7.5	-60	-123.75	-236.25	-225	-221.25	-228.75
116	-60	3.75	-63.75	-131.25	-236.25	-225	-225	-228.75
117	-56.25	11.25	-63.75	-131.25	-240	-228.75	-228.75	-232.5
118	-56.25	18.75	-63.75	-135	-243.75	-232.5	-232.5	-232.5
119	-56.25	18.75	-67.5	-135	-243.75	-232.5	-232.5	-240
120	-48.75	11.25	-67.5	-135	-243.75	-232.5	-232.5	-240
121	-48.75	7.5	-67.5	-135	-247.5	-236.25	-232.5	-240
122	-48.75	0	-63.75	-131.25	-243.75	-236.25	-236.25	-240
123	-45	-11.25	-67.5	-135	-243.75	-240	-232.5	-236.25
124	-45	-18.75	-63.75	-131.25	-240	-236.25	-232.5	-236.25
125	-48.75	-26.25	-63.75	-131.25	-240	-236.25	-228.75	-232.5
126	-45	-33.75	-60	-131.25	-240	-236.25	-228.75	-232.5
127	-45	-37.5	-60	-131.25	-240	-232.5	-225	-228.75
128	-48.75	-33.75	-63.75	-131.25	-240	-232.5	-225	-225
129	-48.75	-30	-60	-131.25	-240	-228.75	-225	-225
130	-52.5	-30	-56.25	-135	-243.75	-232.5	-221.25	-221.25
131	-52.5	-26.25	-60	-131.25	-243.75	-228.75	-221.25	-221.25
132	-52.5	-30	-60	-131.25	-247.5	-232.5	-217.5	-221.25
133	-52.5	-30	-56.25	-131.25	-243.75	-232.5	-217.5	-221.25
134	-48.75	-30	-60	-131.25	-243.75	-228.75	-217.5	-221.25
135	-52.5	-37.5	-60	-131.25	-243.75	-236.25	-217.5	-221.25
136	-52.5	-37.5	-60	-135	-243.75	-236.25	-221.25	-221.25
137	-56.25	-41.25	-60	-135	-247.5	-240	-225	-221.25
138	-56.25	-41.25	-63.75	-138.75	-247.5	-243.75	-225	-225
139	-60	-41.25	-67.5	-146.25	-251.25	-247.5	-232.5	-228.75
140	-63.75	-41.25	-67.5	-146.25	-258.75	-251.25	-232.5	-232.5
141	-63.75	-37.5	-67.5	-150	-258.75	-255	-236.25	-236.25
142	-67.5	-33.75	-71.25	-153.75	-262.5	-255	-243.75	-240
143	-67.5	-30	-75	-157.5	-273.75	-258.75	-247.5	-243.75
144	-63.75	-22.5	-75	-161.25	-273.75	-258.75	-251.25	-243.75
145	-60	-22.5	-78.75	-161.25	-273.75	-262.5	-255	-251.25
146	-60	-18.75	-78.75	-161.25	-277.5	-262.5	-255	-247.5
147	-56.25	-18.75	-82.5	-161.25	-277.5	-266.25	-251.25	-247.5
148	-60	-22.5	-78.75	-161.25	-273.75	-262.5	-247.5	-243.75
149	-63.75	-30	-82.5	-161.25	-273.75	-266.25	-251.25	-243.75
150	-63.75	-41.25	-78.75	-161.25	-273.75	-262.5	-247.5	-240
151	-67.5	-48.75	-78.75	-161.25	-273.75	-266.25	-247.5	-240
152	-67.5	-60	-75	-161.25	-273.75	-262.5	-247.5	-243.75
153	-75	-67.5	-78.75	-165	-277.5	-266.25	-247.5	-240
154	-75	-78.75	-75	-161.25	-277.5	-262.5	-247.5	-240
155	-75	-78.75	-75	-165	-277.5	-262.5	-251.25	-243.75
156	-78.75	-78.75	-75	-161.25	-277.5	-262.5	-251.25	-243.75
157	-75	-75	-75	-165	-277.5	-262.5	-251.25	-243.75
158	-71.25	-71.25	-75	-165	-281.25	-266.25	-247.5	-243.75
159	-71.25	-60	-75	-165	-281.25	-266.25	-251.25	-247.5
160	-67.5	-48.75	-75	-165	-285	-270	-251.25	-247.5
161	-71.25	-41.25	-78.75	-168.75	-285	-270	-251.25	-247.5
162	-67.5	-30	-78.75	-168.75	-285	-270	-251.25	-247.5
163	-63.75	-18.75	-82.5	-168.75	-288.75	-270	-255	-247.5
164	-60	-7.5	-82.5	-172.5	-292.5	-273.75	-251.25	-247.5
165	-63.75	0	-86.25	-176.25	-292.5	-277.5	-255	-251.25
166	-60	11.25	-90	-176.25	-296.25	-277.5	-258.75	-255
167	-60	15	-86.25	-176.25	-292.5	-277.5	-262.5	-251.25
168	-60	22.5	-82.5	-176.25	-296.25	-277.5	-262.5	-255
169	-63.75	22.5	-82.5	-172.5	-296.25	-277.5	-258.75	-251.25
170	-60	22.5	-71.25	-168.75	-288.75	-273.75	-258.75	-251.25
171	-60	15	-63.75	-161.25	-285	-270	-258.75	-247.5
172	-63.75	7.5	-52.5	-153.75	-277.5	-266.25	-251.25	-243.75
173	-63.75	0	-41.25	-142.5	-266.25	-255	-247.5	-236.25
174	-60	-11.25	-30	-135	-258.75	-255	-240	-228.75
175	-63.75	-22.5	-18.75	-127.5	-255	-247.5	-232.5	-225
176	-71.25	-26.25	-15	-123.75	-251.25	-243.75	-228.75	-225
177	-71.25	-30	-15	-123.75	-247.5	-240	-225	-221.25
178	-67.5	-26.25	-11.25	-120	-247.5	-240	-228.75	-225
179	-67.5	-22.5	-11.25	-120	-243.75	-236.25	-225	-225
180	-67.5	-18.75	-7.5	-120	-247.5	-240	-228.75	-221.25
181	-63.75	-11.25	-11.25	-120	-243.75	-232.5	-225	-221.25
182	-60	0	-3.75	-116.25	-243.75	-236.25	-228.75	-221.25
183	-56.25	7.5	-3.75	-116.25	-243.75	-236.25	-228.75	-225
184	-56.25	18.75	0	-116.25	-243.75	-236.25	-228.75	-221.25
185	-52.5	33.75	0	-112.5	-243.75	-236.25	-228.75	-221.25
186	-52.5	45	-3.75	-112.5	-243.75	-240	-225	-221.25
187	-48.75	56.25	-7.5	-116.25	-243.75	-240	-225	-225
188	-45	63.75	-15	-116.25	-243.75	-236.25	-225	-217.5
189	-45	63.75	-22.5	-120	-247.5	-236.25	-221.25	-217.5
190	-41.25	60	-33.75	-120	-243.75	-236.25	-217.5	-213.75
191	-37.5	60	-45	-123.75	-243.75	-232.5	-217.5	-210
192	-30	56.25	-56.25	-127.5	-240	-228.75	-213.75	-206.25
193	-26.25	56.25	-71.25	-135	-243.75	-228.75	-213.75	-206.25
194	-15	56.25	-78.75	-138.75	-243.75	-228.75	-213.75	-206.25
195	-11.25	56.25	-90	-146.25	-247.5	-232.5	-213.75	-206.25
196	-3.75	52.5	-93.75	-150	-251.25	-232.5	-213.75	-206.25
197	0	52.5	-101.25	-153.75	-258.75	-240	-221.25	-206.25
198	0	45	-108.75	-157.5	-258.75	-243.75	-225	-210
199	0	37.5	-108.75	-161.25	-266.25	-247.5	-225	-217.5
200	-7.5	30	-112.5	-165	-270	-251.25	-228.75	-221.25
201	-7.5	15	-108.75	-168.75	-273.75	-258.75	-236.25	-228.75
202	-11.25	3.75	-116.25	-168.75	-273.75	-258.75	-240	-232.5
203	-18.75	-3.75	-112.5	-172.5	-277.5	-262.5	-243.75	-232.5
204	-26.25	-7.5	-116.25	-172.5	-277.5	-262.5	-247.5	-236.25
205	-33.75	-15	-112.5	-176.25	-277.5	-266.25	-247.5	-240
206	-41.25	-18.75	-108.75	-176.25	-281.25	-266.25	-251.25	-243.75
207	-45	-15	-108.75	-180	-281.25	-270	-251.25	-243.75
208	-52.5	-18.75	-105	-180	-285	-270	-251.25	-243.75
209	-52.5	-18.75	-105	-180	-285	-277.5	-255	-243.75
210	-56.25	-15	-101.25	-183.75	-288.75	-277.5	-255	-251.25
211	-56.25	-18.75	-101.25	-187.5	-288.75	-281.25	-258.75	-251.25
212	-56.25	-18.75	-101.25	-187.5	-296.25	-285	-262.5	-255
213	-60	-22.5	-101.25	-191.25	-300	-288.75	-262.5	-258.75
214	-60	-22.5	-105	-195	-300	-292.5	-266.25	-262.5
215	-60	-30	-101.25	-198.75	-300	-296.25	-270	-266.25
216	-63.75	-33.75	-105	-198.75	-300	-296.25	-273.75	-266.25
217	-63.75	-37.5	-108.75	-202.5	-303.75	-296.25	-273.75	-270
218	-63.75	-45	-108.75	-202.5	-303.75	-300	-277.5	-266.25
219	-63.75	-48.75	-108.75	-202.5	-307.5	-296.25	-277.5	-270
220	-67.5	-52.5	-108.75	-206.25	-307.5	-300	-277.5	-270
221	-71.25	-56.25	-108.75	-206.25	-311.25	-303.75	-277.5	-270
222	-71.25	-56.25	-108.75	-202.5	-307.5	-303.75	-277.5	-270
223	-75	-60	-108.75	-202.5	-307.5	-300	-281.25	-270
224	-78.75	-63.75	-108.75	-206.25	-307.5	-300	-281.25	-270
225	-78.75	-71.25	-105	-202.5	-307.5	-300	-281.25	-270
226	-82.5	-75	-105	-202.5	-307.5	-300	-281.25	-273.75
227	-82.5	-78.75	-105	-202.5	-307.5	-296.25	-281.25	-270
228	-82.5	-82.5	-105	-202.5	-303.75	-296.25	-273.75	-273.75
229	-86.25	-78.75	-105	-202.5	-303.75	-296.25	-277.5	-266.25
230	-86.25	-82.5	-105	-198.75	-303.75	-292.5	-270	-266.25
231	-86.25	-78.75	-108.75	-202.5	-300	-296.25	-270	-266.25
232	-86.25	-75	-108.75	-198.75	-303.75	-288.75	-270	-266.25
233	-86.25	-71.25	-108.75	-198.75	-300	-292.5	-273.75	-266.25
234	-82.5	-67.5	-108.75	-198.75	-300	-292.5	-270	-266.25
235	-82.5	-67.5	-112.5	-198.75	-303.75	-296.25	-277.5	-266.25
236	-82.5	-67.5	-108.75	-202.5	-303.75	-303.75	-281.25	-270
237	-78.75	-71.25	-108.75	-198.75	-307.5	-303.75	-281.25	-270
238	-82.5	-71.25	-101.25	-195	-307.5	-311.25	-288.75	-273.75
239	-78.75	-78.75	-93.75	-187.5	-307.5	-318.75	-300	-281.25
240	-78.75	-78.75	-78.75	-180	-311.25	-326.25	-307.5	-292.5
241	-82.5	-86.25	-60	-157.5	-307.5	-333.75	-315	-303.75
242	-75	-90	-26.25	-135	-303.75	-337.5	-326.25	-315
243	-71.25	-93.75	3.75	-93.75	-296.25	-337.5	-333.75	-330
244	-67.5	-105	48.75	-48.75	-277.5	-337.5	-337.5	-341.25
245	-56.25	-108.75	97.5	7.5	-258.75	-333.75	-341.25	-345
246	-41.25	-108.75	146.25	63.75	-232.5	-322.5	-337.5	-345
247	-22.5	-97.5	195	127.5	-191.25	-307.5	-322.5	-337.5
248	0	-75	243.75	195	-150	-281.25	-307.5	-318.75
249	33.75	-41.25	281.25	258.75	-101.25	-243.75	-273.75	-292.5
250	71.25	7.5	307.5	318.75	-41.25	-198.75	-232.5	-251.25
251	116.25	75	326.25	375	18.75	-135	-172.5	-198.75
252	161.25	153.75	330	416.25	86.25	-60	-97.5	-131.25
253	213.75	243.75	322.5	453.75	157.5	26.25	-11.25	-48.75
254	266.25	348.75	296.25	480	232.5	127.5	93.75	45
255	318.75	465	258.75	483.75	311.25	243.75	213.75	161.25
256	375	585	206.25	476.25	390	367.5	345	285
257	420	716.25	135	453.75	468.75	498.75	491.25	416.25
258	468.75	843.75	52.5	408.75	547.5	641.25	641.25	558.75
259	502.5	963.75	-45	345	622.5	776.25	795	705
260	536.25	1080	-153.75	258.75	682.5	915	948.75	851.25
261	555	1185	-273.75	150	738.75	1046.25	1087.5	982.5
262	566.25	1275	-393.75	33.75	780	1162.5	1215	1098.75
263	558.75	1338.75	-510	-93.75	810	1260	1323.75	1188.75
264	543.75	1376.25	-618.75	-221.25	817.5	1327.5	1395	1245
265	506.25	1383.75	-716.25	-348.75	806.25	1361.25	1428.75	1267.5
266	453.75	1357.5	-795	-465	765	1350	1417.5	1245
267	390	1293.75	-851.25	-573.75	697.5	1293.75	1361.25	1188.75
268	311.25	1200	-892.5	-671.25	596.25	1188.75	1252.5	1087.5
269	228.75	1076.25	-915	-757.5	465	1035	1102.5	952.5
270	142.5	933.75	-926.25	-832.5	315	847.5	918.75	795
271	60	787.5	-918.75	-892.5	153.75	637.5	716.25	626.25
272	-11.25	637.5	-900	-933.75	-3.75	427.5	510	453.75
273	-67.5	495	-873.75	-952.5	-142.5	228.75	318.75	292.5
274	-116.25	371.25	-836.25	-948.75	-258.75	63.75	157.5	150
275	-146.25	266.25	-791.25	-926.25	-337.5	-60	26.25	37.5
276	-157.5	180	-738.75	-881.25	-382.5	-150	-63.75	-41.25
277	-161.25	120	-678.75	-813.75	-397.5	-198.75	-123.75	-97.5
278	-153.75	82.5	-615	-735	-393.75	-221.25	-150	-131.25
279	-142.5	60	-551.25	-645	-371.25	-217.5	-165	-146.25
280	-127.5	52.5	-487.5	-558.75	-341.25	-213.75	-161.25	-153.75
281	-112.5	52.5	-431.25	-468.75	-307.5	-195	-153.75	-146.25
282	-97.5	56.25	-375	-386.25	-273.75	-180	-146.25	-146.25
283	-82.5	56.25	-326.25	-315	-240	-168.75	-142.5	-146.25
284	-71.25	56.25	-281.25	-258.75	-210	-157.5	-142.5	-142.5
285	-63.75	48.75	-247.5	-210	-187.5	-153.75	-138.75	-146.25
286	-52.5	41.25	-213.75	-176.25	-168.75	-150	-142.5	-153.75
287	-48.75	33.75	-187.5	-153.75	-153.75	-146.25	-138.75	-157.5
288	-41.25	30	-161.25	-138.75	-146.25	-142.5	-138.75	-153.75
289	-41.25	22.5	-138.75	-123.75	-142.5	-142.5	-138.75	-157.5
290	-41.25	15	-116.25	-116.25	-142.5	-142.5	-138.75	-161.25
291	-41.25	15	-105	-105	-150	-146.25	-138.75	-161.25
292	-41.25	15	-90	-101.25	-150	-150	-146.25	-168.75
293	-45	11.25	-86.25	-90	-153.75	-157.5	-153.75	-168.75
294	-41.25	3.75	-82.5	-82.5	-161.25	-165	-165	-180
295	-41.25	0	-82.5	-78.75	-168.75	-176.25	-172.5	-187.5
296	-45	-3.75	-82.5	-78.75	-168.75	-187.5	-183.75	-198.75
297	-41.25	-7.5	-82.5	-75	-176.25	-195	-195	-206.25
298	-41.25	-11.25	-82.5	-82.5	-180	-206.25	-202.5	-217.5
299	-37.5	-11.25	-82.5	-86.25	-183.75	-213.75	-206.25	-221.25
300	-37.5	-3.75	-86.25	-90	-187.5	-213.75	-210	-225
301	-37.5	0	-86.25	-101.25	-195	-213.75	-210	-225
302	-37.5	11.25	-86.25	-101.25	-198.75	-213.75	-206.25	-221.25
303	-37.5	22.5	-86.25	-101.25	-202.5	-213.75	-206.25	-221.25
304	-33.75	33.75	-86.25	-101.25	-202.5	-217.5	-210	-221.25
305	-33.75	37.5	-86.25	-93.75	-202.5	-213.75	-210	-221.25
306	-33.75	37.5	-82.5	-90	-202.5	-217.5	-210	-221.25
307	-30	26.25	-82.5	-82.5	-198.75	-221.25	-210	-221.25
308	-30	18.75	-78.75	-75	-195	-217.5	-213.75	-221.25
309	-22.5	11.25	-78.75	-71.25	-195	-221.25	-210	-217.5
310	-22.5	0	-71.25	-67.5	-191.25	-221.25	-210	-221.25
311	-26.25	-15	-71.25	-67.5	-187.5	-217.5	-206.25	-217.5
312	-22.5	-22.5	-67.5	-67.5	-183.75	-210	-202.5	-217.5
313	-22.5	-30	-60	-63.75	-180	-206.25	-198.75	-213.75
314	-18.75	-30	-60	-60	-172.5	-202.5	-195	-210
315	-18.75	-30	-56.25	-60	-168.75	-195	-191.25	-202.5
316	-11.25	-30	-52.5	-56.25	-168.75	-191.25	-187.5	-198.75
317	-11.25	-26.25	-52.5	-48.75	-165	-191.25	-183.75	-198.75
318	-7.5	-26.25	-56.25	-48.75	-165	-187.5	-183.75	-195
319	-7.5	-26.25	-56.25	-45	-161.25	-191.25	-183.75	-195
320	-3.75	-22.5	-56.25	-41.25	-165	-195	-183.75	-195
321	-3.75	-18.75	-60	-37.5	-161.25	-191.25	-180	-195
322	0	-15	-63.75	-37.5	-161.25	-195	-187.5	-195
323	0	-11.25	-63.75	-37.5	-161.25	-195	-183.75	-195
324	0	-3.75	-67.5	-37.5	-161.25	-195	-183.75	-195
325	0	0	-63.75	-37.5	-161.25	-191.25	-180	-198.75
326	0	11.25	-67.5	-37.5	-157.5	-187.5	-183.75	-195
327	0	18.75	-67.5	-37.5	-153.75	-187.5	-176.25	-198.75
328	0	33.75	-63.75	-33.75	-150	-183.75	-176.25	-195
329	3.75	41.25	-63.75	-33.75	-150	-180	-176.25	-195
330	3.75	41.25	-63.75	-30	-146.25	-180	-172.5	-191.25
331	7.5	41.25	-67.5	-26.25	-142.5	-172.5	-168.75	-187.5
332	11.25	41.25	-63.75	-18.75	-138.75	-172.5	-165	-180
333	15	33.75	-63.75	-11.25	-135	-168.75	-157.5	-176.25
334	22.5	30	-63.75	-7.5	-131.25	-165	-153.75	-172.5
335	30	33.75	-63.75	0	-131.25	-161.25	-150	-168.75
336	30	33.75	-63.75	0	-127.5	-161.25	-146.25	-168.75
337	37.5	41.25	-63.75	0	-123.75	-157.5	-142.5	-168.75
338	41.25	45	-71.25	0	-123.75	-150	-142.5	-168.75
339	41.25	52.5	-71.25	0	-120	-146.25	-138.75	-165
340	45	56.25	-71.25	0	-116.25	-146.25	-138.75	-165
341	45	56.25	-67.5	0	-112.5	-142.5	-131.25	-161.25
342	41.25	52.5	-67.5	7.5	-105	-135	-131.25	-157.5
343	48.75	56.25	-63.75	15	-101.25	-131.25	-127.5	-150
344	45	52.5	-63.75	18.75	-97.5	-131.25	-123.75	-146.25
345	52.5	48.75	-63.75	18.75	-97.5	-127.5	-123.75	-146.25
346	52.5	52.5	-63.75	26.25	-93.75	-127.5	-120	-142.5
347	52.5	52.5	-63.75	26.25	-93.75	-123.75	-120	-142.5
348	56.25	52.5	-63.75	26.25	-93.75	-123.75	-120	-142.5
349	60	56.25	-63.75	30	-93.75	-123.75	-116.25	-138.75
350	63.75	56.25	-67.5	30	-90	-123.75	-116.25	-142.5
351	67.5	60	-67.5	33.75	-90	-116.25	-116.25	-135
352	71.25	67.5	-71.25	30	-82.5	-120	-108.75	-135
353	75	75	-71.25	30	-86.25	-112.5	-112.5	-131.25
354	82.5	82.5	-71.25	33.75	-82.5	-112.5	-105	-131.25
355	86.25	90	-78.75	33.75	-78.75	-112.5	-105	-131.25
356	97.5	93.75	-75	33.75	-82.5	-116.25	-105	-127.5
357	101.25	97.5	-82.5	33.75	-82.5	-112.5	-108.75	-123.75
358	105	97.5	-82.5	41.25	-82.5	-116.25	-101.25	-123.75
359	105	90	-82.5	41.25	-78.75	-112.5	-105	-120
360	105	82.5	-78.75	45	-78.75	-112.5	-101.25	-116.25
361	105	71.25	-78.75	48.75	-75	-108.75	-97.5	-112.5
362	105	60	-75	48.75	-71.25	-105	-93.75	-108.75
363	108.75	48.75	-71.25	52.5	-67.5	-101.25	-90	-105
364	105	41.25	-71.25	56.25	-63.75	-97.5	-90	-101.25
365	112.5	41.25	-71.25	56.25	-63.75	-97.5	-90	-97.5
366	116.25	45	-71.25	56.25	-67.5	-97.5	-86.25	-97.5
367	123.75	48.75	-71.25	52.5	-63.75	-101.25	-90	-97.5
368	123.75	63.75	-75	52.5	-67.5	-101.25	-86.25	-97.5
369	127.5	75	-78.75	52.5	-75	-105	-93.75	-101.25
370	131.25	90	-82.5	48.75	-78.75	-105	-97.5	-101.25
371	131.25	105	-86.25	41.25	-86.25	-108.75	-97.5	-101.25
372	135	116.25	-90	41.25	-90	-112.5	-97.5	-105
373	138.75	127.5	-90	37.5	-93.75	-116.25	-105	-108.75
374	138.75	135	-90	33.75	-93.75	-116.25	-101.25	-105
375	138.75	135	-90	33.75	-93.75	-116.25	-105	-108.75
376	146.25	131.25	-90	33.75	-93.75	-120	-105	-108.75
377	150	131.25	-86.25	33.75	-90	-116.25	-101.25	-105
378	153.75	127.5	-82.5	37.5	-90	-116.25	-97.5	-108.75
379	153.75	123.75	-82.5	37.5	-93.75	-116.25	-97.5	-105
380	157.5	123.75	-82.5	41.25	-90	-116.25	-97.5	-101.25
381	157.5	123.75	-82.5	41.25	-93.75	-112.5	-97.5	-101.25
382	157.5	120	-75	45	-93.75	-116.25	-93.75	-97.5
383	161.25	116.25	-75	45	-97.5	-116.25	-93.75	-97.5
384	161.25	108.75	-71.25	45	-101.25	-116.25	-90	-93.75
385	157.5	105	-67.5	45	-101.25	-116.25	-90	-90
386	153.75	97.5	-63.75	45	-97.5	-120	-93.75	-90
387	153.75	90	-56.25	45	-105	-116.25	-90	-86.25
388	153.75	82.5	-48.75	48.75	-101.25	-120	-93.75	-90
389	146.25	71.25	-45	45	-105	-123.75	-97.5	-93.75
390	142.5	67.5	-41.25	45	-105	-127.5	-101.25	-97.5
391	138.75	60	-41.25	41.25	-108.75	-127.5	-105	-105
392	138.75	60	-41.25	41.25	-112.5	-135	-108.75	-105
393	131.25	63.75	-41.25	41.25	-116.25	-138.75	-116.25	-112.5
394	127.5	63.75	-37.5	37.5	-120	-142.5	-120	-116.25
395	123.75	67.5	-41.25	37.5	-123.75	-153.75	-123.75	-120
396	120	67.5	-37.5	33.75	-131.25	-157.5	-131.25	-127.5
397	112.5	67.5	-37.5	30	-135	-165	-138.75	-131.25
398	105	67.5	-33.75	22.5	-142.5	-172.5	-146.25	-135
399	97.5	67.5	-30	18.75	-146.25	-176.25	-153.75	-142.5
400	93.75	71.25	-30	15	-157.5	-180	-157.5	-146.25
401	82.5	71.25	-30	7.5	-157.5	-187.5	-161.25	-153.75
402	75	78.75	-26.25	3.75	-161.25	-191.25	-168.75	-157.5
403	67.5	82.5	-33.75	0	-168.75	-195	-172.5	-165
404	63.75	86.25	-30	-3.75	-172.5	-202.5	-176.25	-168.75
405	52.5	86.25	-33.75	-7.5	-176.25	-206.25	-180	-176.25
406	45	90	-33.75	-15	-180	-213.75	-187.5	-180
407	41.25	90	-33.75	-22.5	-183.75	-221.25	-191.25	-183.75
408	33.75	90	-33.75	-22.5	-187.5	-225	-195	-187.5
409	26.25	78.75	-33.75	-30	-191.25	-228.75	-202.5	-191.25
410	18.75	63.75	-30	-30	-191.25	-228.75	-206.25	-191.25
411	15	41.25	-30	-30	-195	-228.75	-206.25	-191.25
412	11.25	15	-26.25	-33.75	-191.25	-228.75	-206.25	-191.25
413	3.75	-3.75	-18.75	-30	-191.25	-225	-198.75	-187.5
414	0	-22.5	-15	-30	-187.5	-221.25	-198.75	-187.5
415	0	-33.75	-15	-33.75	-187.5	-221.25	-198.75	-187.5
416	-7.5	-33.75	-11.25	-33.75	-187.5	-217.5	-195	-183.75
417	-7.5	-30	-11.25	-37.5	-187.5	-217.5	-195	-187.5
418	-15	-26.25	-11.25	-37.5	-187.5	-221.25	-195	-183.75
419	-15	-22.5	-11.25	-41.25	-187.5	-221.25	-198.75	-187.5
420	-18.75	-15	-11.25	-41.25	-195	-221.25	-198.75	-187.5
421	-22.5	-11.25	-11.25	-45	-195	-225	-202.5	-191.25
422	-26.25	-11.25	-15	-52.5	-202.5	-225	-202.5	-195
423	-30	-15	-18.75	-60	-206.25	-228.75	-210	-202.5
424	-37.5	-18.75	-22.5	-67.5	-210	-228.75	-213.75	-206.25
425	-41.25	-22.5	-26.25	-71.25	-213.75	-236.25	-217.5	-210
426	-41.25	-30	-26.25	-78.75	-217.5	-236.25	-221.25	-213.75
427	-45	-33.75	-26.25	-82.5	-217.5	-240	-225	-217.5
428	-48.75	-37.5	-30	-82.5	-221.25	-243.75	-228.75	-221.25
429	-48.75	-41.25	-33.75	-86.25	-225	-247.5	-228.75	-221.25
430	-52.5	-41.25	-33.75	-86.25	-221.25	-251.25	-232.5	-221.25
431	-48.75	-37.5	-37.5	-90	-228.75	-255	-232.5	-228.75
432	-52.5	-33.75	-37.5	-93.75	-232.5	-258.75	-240	-228.75
433	-48.75	-30	-41.25	-97.5	-236.25	-262.5	-243.75	-228.75
434	-52.5	-22.5	-41.25	-105	-243.75	-262.5	-243.75	-228.75
435	-52.5	-15	-45	-112.5	-247.5	-266.25	-243.75	-236.25
436	-52.5	-15	-48.75	-120	-247.5	-270	-247.5	-236.25
437	-56.25	-15	-48.75	-120	-251.25	-273.75	-247.5	-240
438	-56.25	-18.75	-48.75	-123.75	-247.5	-273.75	-247.5	-240
439	-63.75	-30	-48.75	-120	-247.5	-273.75	-243.75	-240
440	-63.75	-41.25	-48.75	-116.25	-247.5	-270	-243.75	-232.5
441	-67.5	-60	-41.25	-112.5	-240	-266.25	-243.75	-232.5
442	-75	-75	-41.25	-108.75	-236.25	-262.5	-240	-225
443	-75	-82.5	-37.5	-105	-232.5	-262.5	-236.25	-221.25
444	-78.75	-90	-33.75	-105	-236.25	-262.5	-236.25	-221.25
445	-75	-93.75	-33.75	-101.25	-232.5	-262.5	-232.5	-217.5
446	-78.75	-90	-33.75	-105	-236.25	-266.25	-236.25	-221.25
447	-75	-82.5	-33.75	-108.75	-236.25	-266.25	-232.5	-221.25
448	-75	-78.75	-37.5	-112.5	-236.25	-273.75	-236.25	-221.25
449	-75	-67.5	-41.25	-116.25	-240	-273.75	-243.75	-228.75
450	-75	-56.25	-45	-120	-243.75	-277.5	-247.5	-232.5
451	-71.25	-48.75	-48.75	-120	-240	-277.5	-247.5	-232.5
452	-75	-33.75	-52.5	-123.75	-247.5	-281.25	-251.25	-236.25
453	-71.25	-30	-52.5	-123.75	-247.5	-277.5	-251.25	-232.5
454	-71.25	-26.25	-56.25	-123.75	-247.5	-277.5	-251.25	-232.5
455	-71.25	-26.25	-60	-120	-243.75	-277.5	-251.25	-236.25
456	-71.25	-30	-56.25	-120	-243.75	-277.5	-243.75	-232.5
457	-67.5	-33.75	-56.25	-116.25	-243.75	-273.75	-240	-228.75
458	-71.25	-37.5	-52.5	-112.5	-236.25	-266.25	-232.5	-228.75
459	-67.5	-41.25	-52.5	-108.75	-232.5	-262.5	-228.75	-225
460	-67.5	-33.75	-52.5	-108.75	-228.75	-258.75	-221.25	-221.25
461	-63.75	-33.75	-48.75	-112.5	-228.75	-255	-221.25	-221.25
462	-63.75	-26.25	-52.5	-105	-225	-255	-217.5	-217.5
463	-63.75	-22.5	-56.25	-105	-228.75	-255	-225	-221.25
464	-63.75	-18.75	-52.5	-108.75	-228.75	-255	-228.75	-225
465	-60	-18.75	-56.25	-108.75	-232.5	-255	-232.5	-221.25
466	-60	-18.75	-56.25	-105	-232.5	-258.75	-232.5	-221.25
467	-60	-18.75	-52.5	-108.75	-232.5	-262.5	-232.5	-221.25
468	-60	-18.75	-52.5	-108.75	-232.5	-262.5	-232.5	-221.25
469	-60	-18.75	-52.5	-112.5	-232.5	-262.5	-232.5	-221.25
470	-60	-18.75	-56.25	-108.75	-228.75	-262.5	-232.5	-221.25
471	-60	-22.5	-52.5	-108.75	-225	-258.75	-228.75	-217.5
472	-60	-26.25	-52.5	-108.75	-225	-255	-225	-221.25
473	-56.25	-26.25	-56.25	-108.75	-221.25	-255	-225	-217.5
474	-56.25	-30	-52.5	-108.75	-217.5	-251.25	-221.25	-217.5
475	-56.25	-33.75	-52.5	-101.25	-217.5	-247.5	-217.5	-217.5
476	-56.25	-33.75	-56.25	-97.5	-210	-247.5	-213.75	-217.5
477	-56.25	-37.5	-52.5	-97.5	-213.75	-251.25	-217.5	-213.75
478	-56.25	-30	-52.5	-93.75	-210	-247.5	-213.75	-217.5
479	-56.25	-30	-52.5	-101.25	-213.75	-251.25	-217.5	-217.5
480	-52.5	-26.25	-56.25	-105	-213.75	-247.5	-217.5	-213.75
481	-60	-15	-60	-105	-217.5	-251.25	-217.5	-217.5
482	-56.25	-7.5	-60	-105	-217.5	-251.25	-217.5	-217.5
483	-56.25	-3.75	-60	-108.75	-217.5	-251.25	-221.25	-221.25
484	-60	-3.75	-60	-112.5	-217.5	-251.25	-221.25	-217.5
485	-60	0	-60	-108.75	-217.5	-251.25	-225	-217.5
486	-60	-3.75	-60	-108.75	-217.5	-255	-221.25	-217.5
487	-60	-7.5	-63.75	-112.5	-221.25	-251.25	-225	-217.5
488	-63.75	-11.25	-63.75	-108.75	-213.75	-251.25	-217.5	-217.5
489	-63.75	-18.75	-60	-108.75	-213.75	-247.5	-217.5	-213.75
490	-56.25	-26.25	-56.25	-108.75	-213.75	-247.5	-217.5	-210
491	-60	-26.25	-60	-105	-213.75	-251.25	-213.75	-206.25
492	-60	-37.5	-52.5	-105	-210	-247.5	-210	-210
493	-56.25	-37.5	-56.25	-105	-213.75	-247.5	-210	-206.25
494	-56.25	-37.5	-52.5	-105	-213.75	-247.5	-213.75	-206.25
495	-60	-37.5	-56.25	-105	-213.75	-247.5	-213.75	-206.25
496	-56.25	-33.75	-52.5	-105	-217.5	-251.25	-213.75	-210
497	-60	-33.75	-60	-108.75	-221.25	-251.25	-213.75	-206.25
498	-60	-30	-63.75	-112.5	-221.25	-255	-217.5	-210
499	-60	-30	-63.75	-112.5	-221.25	-255	-217.5	-213.75
500	-63.75	-30	-63.75	-116.25	-221.25	-255	-217.5	-213.75
501	-63.75	-30	-67.5	-116.25	-225	-255	-217.5	-213.75
502	-60	-26.25	-63.75	-120	-225	-255	-217.5	-217.5
503	-60	-22.5	-63.75	-120	-225	-258.75	-221.25	-213.75
504	-60	-18.75	-63.75	-123.75	-228.75	-255	-221.25	-213.75
505	-60	-18.75	-63.75	-123.75	-225	-258.75	-225	-213.75
506	-60	-15	-67.5	-123.75	-232.5	-258.75	-221.25	-217.5
507	-56.25	-7.5	-71.25	-123.75	-236.25	-262.5	-228.75	-221.25
508	-63.75	-3.75	-71.25	-127.5	-236.25	-262.5	-225	-221.25
509	-60	0	-75	-131.25	-236.25	-262.5	-225	-221.25
510	-63.75	0	-82.5	-131.25	-240	-262.5	-225	-225
511	-60	7.5	-82.5	-138.75	-243.75	-270	-228.75	-225
512	-56.25	3.75	-82.5	-138.75	-243.75	-270	-225	-228.75
513	-56.25	3.75	-86.25	-138.75	-243.75	-270	-228.75	-228.75
514	-56.25	0	-86.25	-138.75	-243.75	-270	-228.75	-228.75
515	-52.5	-11.25	-86.25	-138.75	-243.75	-270	-228.75	-225
516	-52.5	-18.75	-78.75	-138.75	-243.75	-270	-228.75	-221.25
517	-52.5	-33.75	-82.5	-138.75	-243.75	-270	-228.75	-221.25
518	-56.25	-37.5	-78.75	-135	-240	-270	-228.75	-221.25
519	-52.5	-45	-78.75	-142.5	-243.75	-270	-228.75	-221.25
520	-56.25	-48.75	-78.75	-138.75	-240	-266.25	-228.75	-221.25
521	-60	-48.75	-82.5	-138.75	-243.75	-273.75	-228.75	-225
522	-60	-41.25	-82.5	-142.5	-243.75	-270	-232.5	-225
523	-63.75	-41.25	-82.5	-146.25	-251.25	-273.75	-236.25	-228.75
524	-63.75	-33.75	-90	-146.25	-251.25	-277.5	-236.25	-228.75
525	-67.5	-30	-86.25	-150	-255	-281.25	-243.75	-232.5
526	-67.5	-30	-93.75	-153.75	-255	-281.25	-240	-232.5
527	-71.25	-30	-93.75	-157.5	-262.5	-285	-247.5	-232.5
528	-71.25	-33.75	-93.75	-153.75	-262.5	-288.75	-247.5	-232.5
529	-71.25	-33.75	-93.75	-157.5	-266.25	-292.5	-247.5	-232.5
530	-71.25	-37.5	-93.75	-157.5	-266.25	-288.75	-247.5	-232.5
531	-75	-41.25	-93.75	-157.5	-266.25	-292.5	-247.5	-232.5
532	-75	-45	-93.75	-157.5	-266.25	-288.75	-243.75	-228.75
533	-71.25	-48.75	-90	-161.25	-266.25	-288.75	-243.75	-228.75
534	-75	-48.75	-93.75	-161.25	-266.25	-292.5	-243.75	-228.75
535	-71.25	-48.75	-90	-161.25	-266.25	-288.75	-243.75	-232.5
536	-71.25	-48.75	-93.75	-161.25	-266.25	-296.25	-247.5	-228.75
537	-67.5	-45	-97.5	-165	-270	-296.25	-251.25	-236.25
538	-67.5	-45	-101.25	-168.75	-273.75	-296.25	-251.25	-236.25
539	-71.25	-41.25	-101.25	-168.75	-277.5	-300	-258.75	-240
540	-67.5	-41.25	-105	-172.5	-277.5	-300	-258.75	-240
541	-71.25	-45	-105	-172.5	-277.5	-303.75	-255	-240
542	-75	-52.5	-101.25	-168.75	-273.75	-300	-255	-236.25
543	-75	-60	-101.25	-165	-270	-296.25	-251.25	-236.25
544	-75	-71.25	-97.5	-165	-270	-288.75	-247.5	-228.75
545	-71.25	-78.75	-90	-161.25	-266.25	-288.75	-243.75	-228.75
546	-71.25	-82.5	-90	-157.5	-262.5	-285	-240	-225
547	-67.5	-86.25	-86.25	-157.5	-262.5	-281.25	-240	-221.25
548	-67.5	-86.25	-86.25	-157.5	-262.5	-277.5	-236.25	-221.25
549	-63.75	-78.75	-82.5	-157.5	-262.5	-281.25	-236.25	-221.25
550	-63.75	-75	-82.5	-153.75	-262.5	-277.5	-240	-217.5
551	-63.75	-67.5	-86.25	-153.75	-262.5	-281.25	-240	-221.25
552	-60	-60	-86.25	-157.5	-262.5	-281.25	-236.25	-221.25
553	-63.75	-52.5	-90	-161.25	-266.25	-285	-240	-221.25
554	-67.5	-48.75	-90	-161.25	-266.25	-285	-240	-221.25
555	-71.25	-48.75	-93.75	-161.25	-270	-285	-243.75	-225
556	-75	-48.75	-93.75	-161.25	-270	-288.75	-243.75	-228.75
557	-78.75	-48.75	-93.75	-165	-270	-292.5	-247.5	-232.5
558	-82.5	-48.75	-93.75	-168.75	-273.75	-288.75	-247.5	-236.25
559	-86.25	-45	-90	-165	-273.75	-292.5	-247.5	-232.5
560	-86.25	-41.25	-90	-165	-273.75	-296.25	-247.5	-232.5
561	-86.25	-37.5	-86.25	-165	-273.75	-296.25	-247.5	-236.25
562	-82.5	-26.25	-82.5	-161.25	-270	-292.5	-251.25	-232.5
563	-78.75	-22.5	-78.75	-161.25	-270	-292.5	-247.5	-228.75
564	-75	-15	-67.5	-153.75	-266.25	-288.75	-243.75	-228.75
565	-75	-11.25	-60	-150	-262.5	-281.25	-240	-225
566	-67.5	-11.25	-48.75	-142.5	-255	-277.5	-236.25	-221.25
567	-63.75	-11.25	-41.25	-135	-251.25	-270	-232.5	-217.5
568	-63.75	-11.25	-30	-127.5	-247.5	-266.25	-225	-213.75
569	-63.75	-18.75	-26.25	-123.75	-240	-258.75	-221.25	-210
570	-56.25	-15	-18.75	-116.25	-232.5	-255	-217.5	-206.25
571	-56.25	-15	-11.25	-112.5	-228.75	-251.25	-213.75	-202.5
572	-60	-15	-11.25	-108.75	-228.75	-251.25	-213.75	-202.5
573	-56.25	-11.25	-11.25	-108.75	-225	-247.5	-210	-198.75
574	-56.25	-7.5	-7.5	-105	-221.25	-247.5	-210	-198.75
575	-56.25	-3.75	-7.5	-105	-221.25	-243.75	-210	-195
576	-56.25	0	-3.75	-101.25	-221.25	-243.75	-210	-195
577	-56.25	7.5	-7.5	-101.25	-221.25	-243.75	-210	-198.75
578	-56.25	18.75	-11.25	-105	-221.25	-243.75	-210	-198.75
579	-52.5	33.75	-15	-108.75	-221.25	-243.75	-210	-198.75
580	-52.5	45	-22.5	-112.5	-225	-243.75	-210	-198.75
581	-48.75	60	-37.5	-116.25	-228.75	-247.5	-210	-202.5
582	-45	75	-52.5	-120	-232.5	-251.25	-213.75	-202.5
583	-41.25	82.5	-67.5	-127.5	-240	-251.25	-217.5	-206.25
584	-33.75	90	-86.25	-135	-243.75	-255	-221.25	-206.25
585	-30	90	-101.25	-146.25	-247.5	-262.5	-225	-210
586	-22.5	86.25	-112.5	-157.5	-251.25	-266.25	-225	-210
587	-18.75	82.5	-123.75	-161.25	-258.75	-270	-228.75	-213.75
588	-15	71.25	-123.75	-161.25	-258.75	-270	-228.75	-210
589	-7.5	56.25	-127.5	-165	-258.75	-270	-225	-210
590	-7.5	37.5	-123.75	-161.25	-258.75	-266.25	-228.75	-210
591	-7.5	22.5	-123.75	-165	-255	-266.25	-221.25	-206.25
592	-3.75	3.75	-116.25	-165	-258.75	-262.5	-221.25	-202.5
593	-7.5	-11.25	-116.25	-161.25	-255	-266.25	-217.5	-202.5
594	-15	-22.5	-112.5	-161.25	-255	-266.25	-217.5	-202.5
595	-18.75	-33.75	-112.5	-161.25	-255	-262.5	-221.25	-202.5
596	-22.5	-37.5	-112.5	-165	-258.75	-270	-221.25	-202.5
597	-33.75	-45	-112.5	-161.25	-258.75	-270	-225	-206.25
598	-45	-48.75	-108.75	-165	-262.5	-270	-228.75	-210
599	-52.5	-48.75	-108.75	-168.75	-262.5	-273.75	-232.5	-217.5
600	-60	-48.75	-105	-172.5	-266.25	-273.75	-236.25	-221.25
601	-67.5	-48.75	-105	-172.5	-270	-281.25	-243.75	-225
602	-71.25	-48.75	-105	-172.5	-270	-281.25	-243.75	-225
603	-71.25	-52.5	-101.25	-172.5	-273.75	-285	-247.5	-228.75
604	-71.25	-56.25	-101.25	-176.25	-273.75	-285	-247.5	-232.5
605	-71.25	-60	-101.25	-180	-277.5	-288.75	-243.75	-236.25
606	-71.25	-60	-105	-180	-277.5	-288.75	-251.25	-236.25
607	-75	-60	-108.75	-183.75	-281.25	-292.5	-251.25	-240
608	-75	-56.25	-112.5	-191.25	-288.75	-300	-255	-247.5
609	-78.75	-56.25	-116.25	-195	-292.5	-300	-258.75	-247.5
610	-82.5	-52.5	-123.75	-202.5	-303.75	-303.75	-262.5	-255
611	-86.25	-56.25	-131.25	-206.25	-307.5	-307.5	-270	-258.75
612	-86.25	-56.25	-135	-213.75	-311.25	-311.25	-273.75	-262.5
613	-86.25	-56.25	-135	-213.75	-315	-315	-273.75	-262.5
614	-90	-63.75	-135	-213.75	-311.25	-315	-277.5	-262.5
615	-90	-67.5	-127.5	-213.75	-311.25	-315	-277.5	-262.5
616	-90	-75	-123.75	-213.75	-307.5	-318.75	-277.5	-262.5
617	-90	-78.75	-120	-206.25	-307.5	-315	-270	-255
618	-86.25	-82.5	-120	-206.25	-303.75	-311.25	-273.75	-255
619	-86.25	-82.5	-116.25	-202.5	-303.75	-311.25	-266.25	-255
620	-82.5	-82.5	-120	-202.5	-300	-307.5	-270	-251.25
621	-82.5	-82.5	-120	-202.5	-300	-307.5	-266.25	-247.5
622	-78.75	-78.75	-120	-202.5	-300	-307.5	-270	-247.5
623	-82.5	-78.75	-120	-202.5	-300	-307.5	-270	-247.5
624	-82.5	-71.25	-123.75	-202.5	-300	-307.5	-270	-251.25
625	-82.5	-67.5	-123.75	-206.25	-303.75	-311.25	-270	-255
626	-82.5	-60	-127.5	-210	-303.75	-311.25	-273.75	-258.75
627	-82.5	-56.25	-127.5	-210	-307.5	-315	-277.5	-258.75
628	-86.25	-48.75	-127.5	-210	-311.25	-318.75	-285	-262.5
629	-86.25	-45	-127.5	-213.75	-315	-322.5	-288.75	-266.25
630	-82.5	-45	-123.75	-202.5	-318.75	-326.25	-292.5	-270
631	-82.5	-45	-112.5	-198.75	-315	-333.75	-296.25	-281.25
632	-78.75	-52.5	-97.5	-183.75	-315	-337.5	-303.75	-288.75
633	-78.75	-60	-75	-161.25	-311.25	-341.25	-315	-296.25
634	-75	-63.75	-45	-135	-303.75	-348.75	-322.5	-307.5
635	-71.25	-71.25	-7.5	-97.5	-292.5	-352.5	-333.75	-318.75
636	-67.5	-75	33.75	-52.5	-277.5	-352.5	-337.5	-330
637	-56.25	-71.25	78.75	0	-255	-348.75	-341.25	-333.75
638	-41.25	-67.5	127.5	56.25	-228.75	-341.25	-337.5	-333.75
639	-22.5	-52.5	172.5	120	-191.25	-322.5	-326.25	-318.75
640	0	-33.75	213.75	187.5	-146.25	-292.5	-303.75	-300
641	30	0	251.25	251.25	-93.75	-251.25	-266.25	-266.25
642	63.75	33.75	277.5	315	-30	-195	-217.5	-221.25
643	105	86.25	300	371.25	30	-127.5	-150	-161.25
644	153.75	153.75	303.75	420	101.25	-45	-71.25	-90
645	206.25	236.25	300	461.25	176.25	41.25	22.5	-3.75
646	258.75	330	281.25	487.5	255	150	127.5	90
647	318.75	438.75	243.75	495	333.75	262.5	243.75	202.5
648	375	555	191.25	487.5	412.5	386.25	375	326.25
649	431.25	686.25	127.5	461.25	487.5	513.75	513.75	457.5
650	480	825	41.25	420	558.75	641.25	660	596.25
651	525	960	-52.5	356.25	626.25	776.25	806.25	738.75
652	558.75	1087.5	-165	270	686.25	903.75	948.75	873.75
653	581.25	1196.25	-281.25	168.75	735	1027.5	1087.5	1001.25
654	588.75	1282.5	-401.25	60	772.5	1136.25	1207.5	1110
655	577.5	1335	-506.25	-52.5	795	1226.25	1308.75	1196.25
656	555	1353.75	-603.75	-165	806.25	1293.75	1380	1248.75
657	510	1331.25	-686.25	-277.5	798.75	1320	1413.75	1271.25
658	450	1275	-753.75	-390	761.25	1308.75	1395	1248.75
659	375	1196.25	-798.75	-491.25	697.5	1252.5	1335	1185
660	296.25	1087.5	-832.5	-588.75	600	1140	1226.25	1083.75
661	206.25	963.75	-851.25	-678.75	472.5	986.25	1072.5	948.75
662	120	832.5	-858.75	-757.5	318.75	798.75	885	791.25
663	45	705	-855	-825	157.5	592.5	686.25	615
664	-22.5	577.5	-847.5	-877.5	0	382.5	480	446.25
665	-82.5	472.5	-828.75	-907.5	-142.5	191.25	292.5	285
666	-123.75	378.75	-798.75	-911.25	-255	30	135	142.5
667	-150	303.75	-765	-888.75	-337.5	-90	3.75	30
668	-161.25	243.75	-720	-851.25	-386.25	-172.5	-78.75	-45
669	-161.25	195	-671.25	-791.25	-401.25	-221.25	-135	-101.25
670	-153.75	153.75	-611.25	-720	-393.75	-240	-161.25	-127.5
671	-138.75	123.75	-547.5	-637.5	-371.25	-240	-168.75	-142.5
672	-123.75	97.5	-487.5	-551.25	-337.5	-228.75	-165	-142.5
673	-108.75	78.75	-431.25	-468.75	-303.75	-210	-153.75	-131.25
674	-93.75	60	-375	-390	-266.25	-195	-142.5	-123.75
675	-82.5	48.75	-326.25	-322.5	-232.5	-180	-135	-120
676	-71.25	37.5	-281.25	-262.5	-206.25	-168.75	-131.25	-120
677	-60	30	-251.25	-213.75	-183.75	-165	-131.25	-116.25
678	-52.5	26.25	-217.5	-183.75	-168.75	-161.25	-131.25	-120
679	-45	22.5	-195	-161.25	-161.25	-161.25	-135	-123.75
680	-41.25	18.75	-176.25	-146.25	-157.5	-165	-135	-123.75
681	-37.5	18.75	-157.5	-135	-157.5	-161.25	-138.75	-131.25
682	-37.5	15	-138.75	-127.5	-153.75	-165	-138.75	-135
683	-33.75	11.25	-123.75	-120	-157.5	-168.75	-142.5	-142.5
684	-37.5	15	-112.5	-116.25	-161.25	-176.25	-150	-146.25
685	-33.75	15	-105	-112.5	-161.25	-183.75	-161.25	-157.5
686	-37.5	18.75	-101.25	-105	-168.75	-195	-172.5	-168.75
687	-37.5	18.75	-105	-105	-176.25	-206.25	-187.5	-176.25
688	-41.25	22.5	-108.75	-105	-187.5	-217.5	-198.75	-191.25
689	-41.25	26.25	-108.75	-105	-195	-232.5	-210	-198.75
690	-45	30	-116.25	-108.75	-202.5	-243.75	-221.25	-206.25
691	-41.25	33.75	-116.25	-108.75	-206.25	-247.5	-225	-210
692	-41.25	41.25	-116.25	-112.5	-210	-243.75	-221.25	-210
693	-45	41.25	-112.5	-112.5	-210	-243.75	-217.5	-210
694	-41.25	41.25	-108.75	-116.25	-206.25	-236.25	-210	-206.25
695	-37.5	37.5	-101.25	-105	-202.5	-228.75	-202.5	-202.5
696	-33.75	26.25	-90	-101.25	-195	-221.25	-195	-198.75
697	-33.75	7.5	-82.5	-90	-187.5	-217.5	-187.5	-191.25
698	-33.75	-3.75	-71.25	-78.75	-180	-213.75	-183.75	-187.5
699	-26.25	-26.25	-60	-71.25	-172.5	-206.25	-183.75	-183.75
700	-22.5	-37.5	-56.25	-60	-168.75	-206.25	-183.75	-180
701	-18.75	-45	-56.25	-52.5	-168.75	-210	-180	-176.25
702	-15	-45	-60	-52.5	-168.75	-206.25	-183.75	-176.25
703	-11.25	-41.25	-63.75	-48.75	-172.5	-210	-183.75	-172.5
704	-7.5	-30	-67.5	-56.25	-172.5	-206.25	-180	-172.5
705	-7.5	-18.75	-71.25	-56.25	-172.5	-206.25	-176.25	-176.25
706	-11.25	-7.5	-75	-63.75	-176.25	-206.25	-176.25	-172.5
707	-15	0	-75	-67.5	-176.25	-206.25	-176.25	-176.25
708	-18.75	7.5	-75	-71.25	-176.25	-206.25	-180	-180
709	-22.5	15	-78.75	-71.25	-176.25	-206.25	-180	-180
710	-26.25	26.25	-82.5	-71.25	-180	-210	-183.75	-187.5
711	-26.25	33.75	-86.25	-67.5	-183.75	-213.75	-191.25	-187.5
712	-22.5	41.25	-90	-71.25	-183.75	-213.75	-195	-195
713	-22.5	45	-90	-67.5	-183.75	-217.5	-195	-191.25
714	-15	45	-93.75	-67.5	-183.75	-213.75	-191.25	-191.25
715	-11.25	48.75	-93.75	-63.75	-180	-213.75	-187.5	-187.5
716	-3.75	37.5	-90	-60	-176.25	-206.25	-183.75	-180
717	0	30	-86.25	-52.5	-168.75	-198.75	-176.25	-172.5
718	0	22.5	-86.25	-45	-161.25	-195	-168.75	-165
719	3.75	11.25	-82.5	-41.25	-153.75	-187.5	-157.5	-157.5
720	11.25	3.75	-78.75	-33.75	-146.25	-180	-153.75	-153.75
721	11.25	0	-75	-30	-146.25	-176.25	-150	-150
722	11.25	0	-75	-26.25	-142.5	-172.5	-146.25	-146.25
723	15	0	-71.25	-22.5	-142.5	-172.5	-146.25	-150
724	15	7.5	-75	-26.25	-142.5	-176.25	-146.25	-150
725	18.75	11.25	-78.75	-22.5	-146.25	-172.5	-150	-153.75
726	18.75	18.75	-75	-22.5	-146.25	-176.25	-150	-150
727	22.5	33.75	-82.5	-26.25	-142.5	-180	-150	-153.75
728	26.25	45	-90	-22.5	-146.25	-180	-150	-153.75
729	33.75	56.25	-90	-26.25	-146.25	-176.25	-150	-150
730	37.5	67.5	-93.75	-26.25	-142.5	-172.5	-146.25	-150
731	45	71.25	-97.5	-26.25	-142.5	-172.5	-146.25	-146.25
732	48.75	75	-97.5	-22.5	-138.75	-168.75	-142.5	-142.5
733	52.5	71.25	-93.75	-22.5	-138.75	-165	-135	-138.75
734	56.25	67.5	-93.75	-15	-131.25	-157.5	-127.5	-131.25
735	56.25	60	-90	-7.5	-120	-150	-120	-127.5
736	56.25	52.5	-86.25	0	-116.25	-146.25	-116.25	-120
737	52.5	48.75	-86.25	3.75	-108.75	-138.75	-112.5	-116.25
738	56.25	48.75	-82.5	11.25	-105	-135	-108.75	-116.25
739	60	52.5	-82.5	11.25	-101.25	-131.25	-105	-112.5
740	60	56.25	-82.5	11.25	-101.25	-135	-108.75	-112.5
741	60	67.5	-82.5	15	-105	-131.25	-101.25	-108.75
742	63.75	75	-86.25	11.25	-105	-131.25	-101.25	-112.5
743	71.25	82.5	-86.25	11.25	-105	-131.25	-101.25	-108.75
744	71.25	90	-86.25	11.25	-105	-127.5	-101.25	-108.75
745	78.75	90	-90	15	-101.25	-127.5	-101.25	-105
746	82.5	90	-93.75	15	-101.25	-127.5	-101.25	-105
747	86.25	90	-93.75	15	-97.5	-123.75	-97.5	-105
748	93.75	86.25	-93.75	18.75	-97.5	-123.75	-97.5	-101.25
749	97.5	86.25	-97.5	22.5	-93.75	-116.25	-93.75	-97.5
750	101.25	86.25	-97.5	18.75	-93.75	-120	-90	-93.75
751	105	86.25	-93.75	22.5	-90	-116.25	-90	-90
752	105	86.25	-101.25	26.25	-93.75	-112.5	-90	-90
753	108.75	86.25	-97.5	26.25	-90	-112.5	-86.25	-86.25
754	108.75	90	-101.25	22.5	-93.75	-112.5	-82.5	-86.25
755	112.5	93.75	-101.25	26.25	-97.5	-116.25	-86.25	-82.5
756	120	101.25	-105	22.5	-93.75	-112.5	-82.5	-82.5
757	120	105	-105	18.75	-97.5	-116.25	-86.25	-82.5
758	123.75	112.5	-108.75	18.75	-97.5	-120	-86.25	-86.25
759	123.75	123.75	-108.75	18.75	-101.25	-116.25	-86.25	-82.5
760	127.5	127.5	-112.5	11.25	-101.25	-120	-90	-82.5
761	127.5	127.5	-112.5	15	-105	-120	-90	-86.25
762	127.5	127.5	-116.25	11.25	-108.75	-123.75	-90	-82.5
763	131.25	120	-116.25	15	-105	-120	-90	-82.5
764	138.75	116.25	-112.5	15	-108.75	-120	-90	-78.75
765	142.5	108.75	-112.5	15	-108.75	-120	-90	-82.5
766	146.25	101.25	-112.5	18.75	-108.75	-120	-90	-78.75
767	150	93.75	-105	18.75	-108.75	-123.75	-86.25	-78.75
768	157.5	93.75	-101.25	15	-108.75	-120	-86.25	-82.5
769	157.5	90	-101.25	15	-108.75	-123.75	-86.25	-75
770	161.25	90	-97.5	15	-112.5	-120	-90	-78.75
771	157.5	93.75	-97.5	11.25	-120	-123.75	-90	-78.75
772	157.5	97.5	-97.5	7.5	-120	-127.5	-86.25	-78.75
773	153.75	101.25	-101.25	7.5	-123.75	-131.25	-93.75	-82.5
774	153.75	108.75	-101.25	3.75	-135	-138.75	-97.5	-82.5
775	150	116.25	-108.75	0	-142.5	-146.25	-105	-90
776	150	131.25	-108.75	-7.5	-153.75	-153.75	-112.5	-97.5
777	146.25	142.5	-112.5	-15	-161.25	-165	-123.75	-101.25
778	138.75	157.5	-116.25	-22.5	-168.75	-172.5	-131.25	-108.75
779	138.75	168.75	-120	-26.25	-172.5	-176.25	-135	-112.5
780	138.75	176.25	-116.25	-33.75	-176.25	-183.75	-142.5	-120
781	135	183.75	-120	-33.75	-180	-191.25	-146.25	-120
782	135	180	-120	-33.75	-187.5	-191.25	-150	-127.5
783	135	183.75	-120	-33.75	-183.75	-195	-150	-123.75
784	135	176.25	-112.5	-33.75	-187.5	-195	-150	-127.5
785	135	168.75	-108.75	-30	-187.5	-195	-153.75	-127.5
786	135	161.25	-97.5	-26.25	-187.5	-191.25	-150	-123.75
787	131.25	150	-86.25	-22.5	-183.75	-191.25	-146.25	-127.5
788	127.5	138.75	-78.75	-22.5	-183.75	-191.25	-146.25	-123.75
789	116.25	123.75	-63.75	-15	-180	-187.5	-146.25	-120
790	108.75	116.25	-56.25	-15	-180	-187.5	-146.25	-123.75
791	101.25	101.25	-48.75	-11.25	-176.25	-187.5	-150	-120
792	93.75	86.25	-48.75	-7.5	-176.25	-183.75	-146.25	-120
793	86.25	75	-41.25	-7.5	-172.5	-183.75	-146.25	-120
794	78.75	56.25	-41.25	-3.75	-168.75	-183.75	-142.5	-116.25
795	75	45	-37.5	-7.5	-168.75	-180	-146.25	-120
796	67.5	30	-33.75	-3.75	-176.25	-180	-146.25	-120
797	60	15	-30	-11.25	-172.5	-180	-146.25	-123.75
798	52.5	3.75	-26.25	-11.25	-176.25	-183.75	-146.25	-127.5
799	52.5	0	-22.5	-15	-180	-183.75	-146.25	-131.25
800	45	-11.25	-18.75	-18.75	-180	-187.5	-153.75	-131.25
801	37.5	-15	-18.75	-22.5	-183.75	-191.25	-153.75	-135
802	30	-15	-18.75	-26.25	-183.75	-191.25	-157.5	-138.75
803	22.5	-18.75	-18.75	-30	-187.5	-202.5	-165	-146.25
804	15	-11.25	-18.75	-33.75	-191.25	-206.25	-168.75	-150
805	11.25	-7.5	-22.5	-41.25	-198.75	-206.25	-176.25	-161.25
806	3.75	0	-26.25	-48.75	-202.5	-213.75	-183.75	-168.75
807	0	7.5	-33.75	-60	-210	-221.25	-191.25	-176.25
808	0	11.25	-37.5	-67.5	-213.75	-225	-198.75	-183.75
809	-3.75	18.75	-48.75	-75	-221.25	-228.75	-210	-191.25
810	-7.5	22.5	-48.75	-82.5	-228.75	-236.25	-213.75	-191.25
811	-11.25	22.5	-52.5	-86.25	-232.5	-240	-217.5	-195
812	-18.75	18.75	-56.25	-90	-236.25	-243.75	-217.5	-195
813	-22.5	15	-52.5	-93.75	-236.25	-247.5	-217.5	-191.25
814	-26.25	11.25	-56.25	-93.75	-236.25	-247.5	-217.5	-195
815	-30	7.5	-52.5	-93.75	-240	-247.5	-213.75	-191.25
816	-33.75	3.75	-52.5	-101.25	-240	-243.75	-217.5	-195
817	-37.5	3.75	-52.5	-105	-243.75	-247.5	-217.5	-195
818	-41.25	3.75	-56.25	-108.75	-247.5	-247.5	-221.25	-198.75
819	-48.75	3.75	-56.25	-112.5	-247.5	-251.25	-221.25	-202.5
820	-45	3.75	-56.25	-120	-255	-251.25	-225	-206.25
821	-48.75	3.75	-60	-123.75	-258.75	-258.75	-228.75	-206.25
822	-52.5	3.75	-63.75	-131.25	-258.75	-258.75	-232.5	-210
823	-52.5	3.75	-63.75	-135	-262.5	-258.75	-236.25	-210
824	-52.5	3.75	-67.5	-135	-266.25	-262.5	-236.25	-213.75
825	-56.25	3.75	-71.25	-138.75	-266.25	-266.25	-240	-213.75
826	-52.5	0	-67.5	-138.75	-270	-262.5	-243.75	-217.5
827	-56.25	0	-67.5	-138.75	-270	-266.25	-243.75	-221.25
828	-56.25	0	-67.5	-138.75	-270	-266.25	-243.75	-217.5
829	-56.25	0	-67.5	-142.5	-270	-266.25	-243.75	-221.25
830	-56.25	0	-67.5	-142.5	-266.25	-266.25	-243.75	-217.5
831	-60	0	-67.5	-146.25	-266.25	-262.5	-240	-221.25
832	-63.75	0	-63.75	-142.5	-266.25	-266.25	-240	-217.5
833	-63.75	0	-67.5	-146.25	-266.25	-266.25	-243.75	-217.5
834	-63.75	-3.75	-67.5	-146.25	-266.25	-266.25	-240	-217.5
835	-63.75	-3.75	-71.25	-150	-266.25	-266.25	-243.75	-217.5
836	-63.75	0	-71.25	-146.25	-266.25	-266.25	-240	-217.5
837	-67.5	0	-67.5	-150	-270	-270	-243.75	-213.75
838	-67.5	0	-71.25	-150	-273.75	-270	-240	-217.5
839	-67.5	0	-71.25	-146.25	-270	-270	-240	-213.75
840	-67.5	0	-71.25	-146.25	-270	-270	-236.25	-217.5
841	-71.25	-3.75	-71.25	-146.25	-266.25	-266.25	-236.25	-217.5
842	-71.25	-7.5	-71.25	-146.25	-262.5	-262.5	-232.5	-213.75
843	-75	-15	-71.25	-146.25	-262.5	-262.5	-232.5	-213.75
844	-71.25	-26.25	-67.5	-142.5	-258.75	-258.75	-232.5	-213.75
845	-75	-37.5	-67.5	-138.75	-255	-255	-232.5	-206.25
846	-75	-48.75	-63.75	-138.75	-251.25	-251.25	-228.75	-206.25
847	-71.25	-60	-60	-135	-247.5	-247.5	-225	-198.75
848	-71.25	-67.5	-52.5	-127.5	-240	-240	-217.5	-191.25
849	-67.5	-75	-52.5	-123.75	-240	-236.25	-217.5	-183.75
850	-63.75	-78.75	-48.75	-120	-236.25	-232.5	-210	-180
851	-63.75	-71.25	-48.75	-116.25	-236.25	-236.25	-210	-180
852	-63.75	-60	-52.5	-120	-240	-236.25	-210	-180
853	-60	-45	-60	-123.75	-243.75	-240	-210	-183.75
854	-60	-26.25	-63.75	-131.25	-247.5	-243.75	-213.75	-191.25
855	-60	-7.5	-71.25	-135	-251.25	-247.5	-225	-198.75
856	-56.25	3.75	-78.75	-142.5	-258.75	-255	-232.5	-206.25
857	-56.25	11.25	-86.25	-150	-258.75	-262.5	-240	-213.75
858	-56.25	15	-90	-153.75	-266.25	-262.5	-243.75	-213.75
859	-60	18.75	-93.75	-157.5	-266.25	-262.5	-243.75	-213.75
860	-56.25	15	-90	-157.5	-266.25	-262.5	-243.75	-213.75
861	-56.25	15	-93.75	-157.5	-266.25	-262.5	-243.75	-213.75
862	-60	15	-93.75	-153.75	-266.25	-258.75	-240	-213.75
863	-60	15	-90	-153.75	-266.25	-258.75	-236.25	-213.75
864	-60	18.75	-90	-150	-262.5	-258.75	-236.25	-213.75
865	-60	11.25	-86.25	-150	-258.75	-255	-228.75	-213.75
866	-63.75	7.5	-86.25	-142.5	-258.75	-251.25	-225	-210
867	-60	0	-82.5	-138.75	-255	-247.5	-221.25	-206.25
868	-60	0	-82.5	-138.75	-247.5	-243.75	-221.25	-202.5
869	-63.75	-7.5	-78.75	-135	-243.75	-240	-221.25	-198.75
870	-60	-11.25	-78.75	-131.25	-243.75	-236.25	-217.5	-195
871	-60	-15	-75	-127.5	-240	-232.5	-213.75	-191.25
872	-60	-15	-75	-131.25	-240	-232.5	-213.75	-187.5
873	-60	-18.75	-75	-127.5	-236.25	-232.5	-210	-183.75
874	-56.25	-18.75	-78.75	-127.5	-240	-232.5	-210	-183.75
875	-56.25	-22.5	-75	-123.75	-236.25	-232.5	-210	-183.75
876	-52.5	-18.75	-75	-123.75	-236.25	-232.5	-206.25	-183.75
877	-52.5	-22.5	-75	-123.75	-236.25	-232.5	-210	-183.75
878	-48.75	-22.5	-75	-123.75	-240	-232.5	-206.25	-183.75
879	-45	-15	-75	-123.75	-236.25	-232.5	-210	-183.75
880	-45	-15	-75	-127.5	-243.75	-232.5	-210	-180
881	-45	-7.5	-78.75	-127.5	-243.75	-240	-213.75	-183.75
882	-45	-3.75	-82.5	-135	-243.75	-236.25	-213.75	-183.75
883	-45	0	-78.75	-131.25	-247.5	-240	-213.75	-183.75
884	-48.75	0	-86.25	-138.75	-243.75	-243.75	-217.5	-183.75
885	-48.75	0	-86.25	-138.75	-251.25	-240	-217.5	-183.75
886	-48.75	0	-90	-142.5	-247.5	-240	-217.5	-187.5
887	-48.75	0	-90	-142.5	-247.5	-240	-221.25	-191.25
888	-48.75	-3.75	-90	-142.5	-247.5	-247.5	-217.5	-187.5
889	-48.75	-11.25	-90	-142.5	-251.25	-240	-221.25	-191.25
890	-52.5	-15	-90	-142.5	-247.5	-243.75	-217.5	-191.25
891	-48.75	-18.75	-82.5	-138.75	-251.25	-243.75	-217.5	-191.25
892	-52.5	-26.25	-86.25	-142.5	-247.5	-240	-213.75	-191.25
893	-56.25	-33.75	-82.5	-138.75	-247.5	-240	-213.75	-187.5
894	-56.25	-33.75	-82.5	-138.75	-247.5	-240	-213.75	-187.5
895	-56.25	-30	-86.25	-142.5	-251.25	-243.75	-217.5	-191.25
896	-52.5	-22.5	-90	-146.25	-258.75	-243.75	-217.5	-191.25
897	-56.25	-11.25	-97.5	-153.75	-262.5	-251.25	-225	-191.25
898	-56.25	0	-101.25	-161.25	-270	-258.75	-232.5	-195
899	-52.5	7.5	-108.75	-168.75	-270	-262.5	-240	-202.5
900	-52.5	15	-112.5	-172.5	-277.5	-266.25	-243.75	-206.25
901	-56.25	15	-112.5	-176.25	-277.5	-273.75	-243.75	-206.25
902	-52.5	7.5	-112.5	-172.5	-281.25	-273.75	-243.75	-210
903	-56.25	0	-108.75	-176.25	-277.5	-270	-240	-210
904	-56.25	-11.25	-108.75	-172.5	-277.5	-270	-240	-210
905	-56.25	-18.75	-108.75	-165	-277.5	-270	-240	-206.25
906	-56.25	-26.25	-105	-168.75	-273.75	-266.25	-236.25	-206.25
907	-60	-30	-105	-165	-277.5	-266.25	-236.25	-206.25
908	-63.75	-26.25	-105	-165	-277.5	-270	-236.25	-202.5
909	-63.75	-22.5	-105	-168.75	-277.5	-270	-236.25	-202.5
910	-63.75	-15	-108.75	-172.5	-277.5	-270	-240	-202.5
911	-67.5	-7.5	-108.75	-172.5	-281.25	-273.75	-240	-202.5
912	-71.25	0	-112.5	-180	-285	-277.5	-247.5	-202.5
913	-71.25	7.5	-112.5	-183.75	-288.75	-281.25	-247.5	-206.25
914	-71.25	18.75	-120	-187.5	-292.5	-285	-255	-210
915	-75	18.75	-123.75	-191.25	-296.25	-288.75	-258.75	-217.5
916	-75	18.75	-123.75	-191.25	-296.25	-292.5	-258.75	-217.5
917	-71.25	15	-127.5	-191.25	-300	-296.25	-262.5	-221.25
918	-71.25	3.75	-120	-191.25	-296.25	-288.75	-255	-217.5
919	-71.25	-3.75	-120	-183.75	-296.25	-285	-255	-213.75
920	-67.5	-22.5	-116.25	-183.75	-292.5	-281.25	-251.25	-210
921	-63.75	-30	-112.5	-180	-288.75	-277.5	-243.75	-206.25
922	-63.75	-37.5	-112.5	-180	-285	-273.75	-243.75	-202.5
923	-60	-41.25	-112.5	-180	-285	-273.75	-240	-198.75
924	-63.75	-37.5	-105	-180	-285	-270	-240	-198.75
925	-63.75	-33.75	-108.75	-176.25	-281.25	-270	-236.25	-195
926	-63.75	-33.75	-105	-180	-285	-270	-236.25	-195
927	-63.75	-30	-108.75	-180	-285	-270	-236.25	-195
928	-63.75	-26.25	-108.75	-180	-285	-270	-236.25	-198.75
929	-63.75	-30	-112.5	-183.75	-288.75	-273.75	-236.25	-195
930	-63.75	-30	-112.5	-187.5	-292.5	-277.5	-240	-198.75
931	-63.75	-33.75	-116.25	-187.5	-292.5	-281.25	-243.75	-202.5
932	-67.5	-33.75	-120	-191.25	-300	-288.75	-247.5	-206.25
933	-63.75	-33.75	-120	-195	-300	-288.75	-251.25	-206.25
934	-63.75	-41.25	-123.75	-198.75	-303.75	-288.75	-251.25	-210
935	-63.75	-45	-120	-195	-303.75	-288.75	-251.25	-210
936	-63.75	-48.75	-116.25	-198.75	-303.75	-292.5	-251.25	-210
937	-63.75	-52.5	-116.25	-198.75	-303.75	-288.75	-251.25	-210
938	-63.75	-52.5	-116.25	-198.75	-303.75	-288.75	-251.25	-210
939	-67.5	-48.75	-112.5	-198.75	-303.75	-288.75	-251.25	-210
940	-67.5	-48.75	-112.5	-195	-303.75	-288.75	-255	-213.75
941	-71.25	-48.75	-112.5	-198.75	-300	-288.75	-251.25	-213.75
942	-71.25	-45	-112.5	-198.75	-303.75	-292.5	-258.75	-217.5
943	-71.25	-41.25	-116.25	-198.75	-307.5	-296.25	-258.75	-217.5
944	-71.25	-45	-116.25	-198.75	-307.5	-300	-258.75	-217.5
945	-71.25	-45	-120	-202.5	-311.25	-300	-258.75	-217.5
946	-71.25	-45	-116.25	-202.5	-311.25	-296.25	-258.75	-221.25
947	-71.25	-48.75	-120	-198.75	-315	-300	-258.75	-221.25
948	-75	-48.75	-120	-206.25	-311.25	-296.25	-255	-225
949	-78.75	-52.5	-120	-206.25	-311.25	-292.5	-255	-221.25
950	-78.75	-45	-120	-206.25	-307.5	-292.5	-255	-221.25
951	-78.75	-45	-116.25	-202.5	-311.25	-288.75	-255	-225
952	-82.5	-41.25	-120	-206.25	-307.5	-288.75	-255	-221.25
953	-82.5	-33.75	-116.25	-202.5	-303.75	-285	-255	-221.25
954	-82.5	-22.5	-112.5	-202.5	-300	-288.75	-255	-225
955	-82.5	-11.25	-116.25	-202.5	-303.75	-285	-251.25	-221.25
956	-86.25	0	-112.5	-198.75	-300	-285	-251.25	-221.25
957	-86.25	7.5	-108.75	-198.75	-300	-288.75	-255	-221.25
958	-86.25	15	-108.75	-198.75	-300	-285	-255	-221.25
959	-86.25	26.25	-105	-202.5	-300	-288.75	-255	-225
960	-86.25	37.5	-105	-198.75	-303.75	-288.75	-255	-225
961	-82.5	45	-105	-198.75	-300	-292.5	-258.75	-221.25
962	-78.75	52.5	-97.5	-198.75	-303.75	-288.75	-255	-225
963	-71.25	56.25	-97.5	-191.25	-300	-288.75	-255	-225
964	-63.75	56.25	-86.25	-187.5	-296.25	-281.25	-251.25	-221.25
965	-60	52.5	-78.75	-180	-288.75	-277.5	-243.75	-217.5
966	-52.5	52.5	-71.25	-176.25	-285	-273.75	-240	-213.75
967	-45	45	-60	-165	-277.5	-262.5	-232.5	-206.25
968	-45	45	-48.75	-157.5	-270	-258.75	-228.75	-202.5
969	-41.25	41.25	-37.5	-150	-262.5	-251.25	-221.25	-195
970	-45	41.25	-33.75	-146.25	-251.25	-247.5	-217.5	-187.5
971	-41.25	37.5	-30	-138.75	-251.25	-243.75	-213.75	-183.75
972	-37.5	41.25	-26.25	-135	-243.75	-236.25	-210	-176.25
973	-37.5	37.5	-26.25	-131.25	-236.25	-232.5	-202.5	-172.5
974	-30	33.75	-26.25	-127.5	-232.5	-228.75	-198.75	-165
975	-26.25	33.75	-26.25	-123.75	-232.5	-221.25	-195	-161.25
976	-22.5	33.75	-33.75	-123.75	-232.5	-217.5	-191.25	-157.5
977	-11.25	37.5	-41.25	-127.5	-228.75	-217.5	-187.5	-157.5
978	-7.5	45	-48.75	-127.5	-232.5	-217.5	-187.5	-157.5
979	0	52.5	-60	-131.25	-232.5	-221.25	-191.25	-157.5
980	0	60	-75	-138.75	-240	-225	-191.25	-157.5
981	11.25	67.5	-90	-146.25	-240	-225	-191.25	-161.25
982	15	71.25	-105	-153.75	-243.75	-228.75	-198.75	-161.25
983	18.75	71.25	-116.25	-161.25	-247.5	-228.75	-198.75	-161.25
984	22.5	67.5	-127.5	-168.75	-251.25	-236.25	-198.75	-157.5
985	22.5	60	-131.25	-176.25	-255	-236.25	-198.75	-161.25
986	26.25	56.25	-135	-180	-258.75	-240	-202.5	-161.25
987	26.25	48.75	-138.75	-180	-262.5	-240	-202.5	-161.25
988	26.25	41.25	-138.75	-180	-266.25	-243.75	-202.5	-165
989	26.25	37.5	-138.75	-183.75	-273.75	-247.5	-206.25	-168.75
990	18.75	33.75	-135	-183.75	-273.75	-251.25	-210	-168.75
991	15	33.75	-135	-187.5	-273.75	-251.25	-213.75	-172.5
992	11.25	33.75	-131.25	-187.5	-277.5	-255	-221.25	-176.25
993	3.75	33.75	-135	-191.25	-277.5	-258.75	-221.25	-180
994	0	33.75	-135	-198.75	-281.25	-262.5	-228.75	-187.5
995	-3.75	33.75	-135	-198.75	-281.25	-266.25	-232.5	-191.25
996	-7.5	33.75	-135	-202.5	-288.75	-270	-236.25	-195
997	-15	30	-135	-202.5	-288.75	-273.75	-240	-202.5
998	-18.75	33.75	-135	-202.5	-296.25	-281.25	-247.5	-206.25
999	-22.5	30	-135	-210	-296.25	-285	-251.25	-210
1000	-30	26.25	-138.75	-210	-303.75	-288.75	-255	-213.75
1001	-33.75	26.25	-138.75	-217.5	-307.5	-296.25	-262.5	-221.25
1002	-37.5	18.75	-138.75	-217.5	-311.25	-300	-266.25	-221.25
1003	-45	7.5	-138.75	-217.5	-315	-303.75	-266.25	-221.25
1004	-48.75	0	-142.5	-221.25	-315	-303.75	-270	-221.25
1005	-52.5	-7.5	-142.5	-221.25	-311.25	-300	-266.25	-225
1006	-56.25	-11.25	-142.5	-225	-315	-300	-262.5	-225
1007	-56.25	-15	-142.5	-221.25	-311.25	-300	-262.5	-221.25
1008	-56.25	-11.25	-142.5	-221.25	-311.25	-303.75	-262.5	-221.25
1009	-56.25	-7.5	-138.75	-225	-315	-300	-262.5	-225
1010	-52.5	0	-146.25	-225	-311.25	-300	-266.25	-225
1011	-52.5	3.75	-146.25	-228.75	-318.75	-303.75	-266.25	-228.75
1012	-52.5	15	-146.25	-236.25	-322.5	-303.75	-273.75	-228.75
1013	-52.5	18.75	-150	-236.25	-322.5	-307.5	-273.75	-236.25
1014	-52.5	22.5	-150	-240	-330	-307.5	-273.75	-236.25
1015	-52.5	15	-153.75	-236.25	-330	-307.5	-273.75	-232.5
1016	-52.5	7.5	-153.75	-236.25	-326.25	-311.25	-273.75	-232.5
1017	-52.5	0	-150	-236.25	-326.25	-311.25	-273.75	-228.75
1018	-56.25	-7.5	-150	-232.5	-326.25	-311.25	-270	-225
1019	-60	-18.75	-146.25	-228.75	-322.5	-311.25	-270	-225
1020	-60	-30	-146.25	-228.75	-322.5	-311.25	-270	-225
1021	-63.75	-41.25	-142.5	-225	-318.75	-307.5	-270	-221.25
1022	-67.5	-48.75	-138.75	-225	-315	-303.75	-262.5	-221.25
1023	-71.25	-60	-135	-217.5	-311.25	-300	-262.5	-217.5
1024	-71.25	-67.5	-127.5	-213.75	-303.75	-292.5	-258.75	-213.75
1025	-71.25	-71.25	-120	-206.25	-300	-288.75	-255	-213.75
1026	-71.25	-75	-112.5	-198.75	-296.25	-288.75	-255	-213.75
1027	-63.75	-67.5	-101.25	-191.25	-292.5	-288.75	-258.75	-217.5
1028	-60	-52.5	-90	-180	-292.5	-296.25	-266.25	-225
1029	-52.5	-37.5	-75	-165	-296.25	-303.75	-277.5	-236.25
1030	-45	-18.75	-56.25	-146.25	-292.5	-315	-288.75	-255
1031	-33.75	0	-30	-120	-292.5	-322.5	-307.5	-273.75
1032	-22.5	15	0	-86.25	-281.25	-330	-318.75	-288.75
1033	-11.25	30	41.25	-41.25	-266.25	-330	-326.25	-296.25
1034	3.75	41.25	78.75	11.25	-240	-322.5	-326.25	-296.25
1035	18.75	52.5	123.75	75	-202.5	-303.75	-311.25	-285
1036	41.25	67.5	168.75	138.75	-157.5	-273.75	-288.75	-262.5
1037	71.25	82.5	210	210	-97.5	-228.75	-247.5	-228.75
1038	105	112.5	243.75	281.25	-30	-165	-195	-180
1039	146.25	153.75	266.25	345	41.25	-97.5	-127.5	-120
1040	195	213.75	277.5	401.25	112.5	-15	-45	-48.75
1041	251.25	288.75	273.75	446.25	187.5	75	41.25	33.75
1042	311.25	386.25	258.75	476.25	266.25	176.25	146.25	127.5
1043	371.25	491.25	228.75	495	341.25	285	262.5	236.25
1044	435	615	180	498.75	420	397.5	382.5	352.5
1045	487.5	742.5	123.75	487.5	495	521.25	517.5	480
1046	543.75	873.75	52.5	465	566.25	645	656.25	611.25
1047	585	1005	-22.5	423.75	637.5	776.25	798.75	750
1048	618.75	1125	-112.5	367.5	705	903.75	941.25	881.25
1049	641.25	1226.25	-210	296.25	757.5	1023.75	1072.5	1005
1050	648.75	1312.5	-303.75	217.5	806.25	1132.5	1196.25	1113.75
1051	648.75	1365	-393.75	131.25	843.75	1222.5	1293.75	1196.25
1052	630	1387.5	-472.5	33.75	862.5	1290	1361.25	1252.5
1053	596.25	1372.5	-540	-60	858.75	1320	1395	1275
1054	547.5	1327.5	-592.5	-157.5	828.75	1308.75	1383.75	1252.5
1055	480	1248.75	-637.5	-258.75	772.5	1260	1335	1200
1056	405	1136.25	-660	-360	682.5	1166.25	1233.75	1110
1057	318.75	1008.75	-678.75	-457.5	562.5	1027.5	1098.75	990
1058	225	862.5	-682.5	-543.75	420	858.75	930	843.75
1059	135	716.25	-682.5	-626.25	266.25	671.25	746.25	682.5
1060	52.5	577.5	-675	-690	112.5	476.25	555	521.25
1061	-15	453.75	-663.75	-735	-22.5	296.25	375	367.5
1062	-71.25	352.5	-652.5	-761.25	-146.25	138.75	217.5	228.75
1063	-112.5	270	-633.75	-768.75	-236.25	11.25	93.75	120
1064	-131.25	213.75	-611.25	-753.75	-292.5	-82.5	0	30
1065	-138.75	176.25	-588.75	-720	-330	-146.25	-63.75	-30
1066	-135	153.75	-555	-678.75	-345	-180	-108.75	-71.25
1067	-123.75	142.5	-521.25	-626.25	-341.25	-198.75	-131.25	-93.75
1068	-101.25	138.75	-480	-566.25	-330	-202.5	-138.75	-105
1069	-86.25	138.75	-442.5	-506.25	-315	-198.75	-142.5	-108.75
1070	-67.5	138.75	-401.25	-438.75	-288.75	-187.5	-138.75	-108.75
1071	-52.5	135	-360	-375	-266.25	-180	-138.75	-108.75
1072	-37.5	127.5	-326.25	-318.75	-243.75	-172.5	-138.75	-108.75
1073	-30	116.25	-288.75	-266.25	-221.25	-165	-135	-108.75
1074	-26.25	97.5	-255	-225	-198.75	-157.5	-131.25	-105
1075	-18.75	86.25	-228.75	-191.25	-180	-150	-131.25	-108.75
1076	-11.25	71.25	-202.5	-168.75	-165	-146.25	-127.5	-105
1077	-7.5	60	-180	-153.75	-153.75	-142.5	-120	-105
1078	-3.75	48.75	-161.25	-146.25	-153.75	-138.75	-120	-101.25
1079	0	48.75	-146.25	-142.5	-153.75	-138.75	-120	-105
1080	3.75	48.75	-131.25	-138.75	-157.5	-142.5	-123.75	-108.75
1081	3.75	48.75	-127.5	-138.75	-161.25	-150	-127.5	-116.25
1082	7.5	52.5	-123.75	-135	-168.75	-157.5	-138.75	-123.75
1083	7.5	56.25	-123.75	-131.25	-180	-168.75	-150	-135
1084	7.5	60	-120	-123.75	-187.5	-176.25	-165	-146.25
1085	7.5	63.75	-127.5	-123.75	-191.25	-191.25	-176.25	-153.75
1086	7.5	63.75	-123.75	-120	-195	-198.75	-180	-157.5
1087	3.75	63.75	-127.5	-120	-198.75	-206.25	-187.5	-161.25
1088	3.75	56.25	-123.75	-123.75	-195	-206.25	-180	-157.5
1089	3.75	48.75	-120	-123.75	-191.25	-202.5	-180	-153.75
1090	3.75	41.25	-120	-123.75	-191.25	-195	-168.75	-150
1091	3.75	33.75	-112.5	-120	-187.5	-187.5	-165	-142.5
1092	3.75	22.5	-108.75	-120	-183.75	-180	-161.25	-138.75
1093	3.75	15	-105	-120	-183.75	-176.25	-157.5	-135
1094	3.75	15	-105	-116.25	-183.75	-176.25	-157.5	-138.75
1095	3.75	15	-105	-112.5	-183.75	-180	-161.25	-142.5
1096	3.75	15	-108.75	-108.75	-183.75	-180	-168.75	-142.5
1097	3.75	22.5	-108.75	-105	-187.5	-183.75	-172.5	-150
1098	3.75	26.25	-112.5	-105	-187.5	-191.25	-176.25	-153.75
1099	7.5	41.25	-116.25	-108.75	-187.5	-195	-183.75	-161.25
1100	7.5	52.5	-116.25	-108.75	-195	-198.75	-183.75	-161.25
1101	3.75	60	-123.75	-116.25	-191.25	-198.75	-187.5	-165
1102	7.5	63.75	-123.75	-112.5	-195	-195	-183.75	-161.25
1103	11.25	67.5	-123.75	-116.25	-195	-195	-180	-161.25
1104	7.5	60	-123.75	-116.25	-191.25	-191.25	-176.25	-157.5
1105	15	52.5	-120	-112.5	-187.5	-187.5	-172.5	-153.75
1106	15	48.75	-116.25	-112.5	-183.75	-180	-168.75	-153.75
1107	15	41.25	-116.25	-105	-183.75	-176.25	-168.75	-150
1108	15	45	-112.5	-101.25	-180	-176.25	-165	-150
1109	18.75	45	-116.25	-97.5	-176.25	-176.25	-168.75	-146.25
1110	18.75	48.75	-116.25	-93.75	-176.25	-176.25	-168.75	-150
1111	18.75	56.25	-116.25	-93.75	-176.25	-176.25	-168.75	-146.25
1112	26.25	56.25	-116.25	-86.25	-172.5	-172.5	-165	-142.5
1113	30	60	-116.25	-90	-168.75	-168.75	-161.25	-142.5
1114	33.75	60	-112.5	-82.5	-161.25	-165	-153.75	-135
1115	37.5	60	-112.5	-82.5	-161.25	-161.25	-150	-131.25
1116	41.25	60	-112.5	-75	-153.75	-153.75	-142.5	-123.75
1117	45	56.25	-112.5	-75	-150	-150	-138.75	-120
1118	45	56.25	-112.5	-75	-146.25	-146.25	-135	-116.25
1119	45	60	-112.5	-71.25	-146.25	-142.5	-131.25	-116.25
1120	48.75	56.25	-112.5	-67.5	-142.5	-142.5	-131.25	-112.5
1121	48.75	60	-116.25	-60	-138.75	-138.75	-127.5	-108.75
1122	48.75	60	-112.5	-60	-138.75	-138.75	-127.5	-108.75
1123	48.75	67.5	-116.25	-56.25	-138.75	-135	-123.75	-108.75
1124	48.75	78.75	-120	-56.25	-138.75	-138.75	-123.75	-108.75
1125	56.25	93.75	-123.75	-56.25	-135	-135	-127.5	-108.75
1126	60	112.5	-123.75	-56.25	-135	-135	-127.5	-108.75
1127	63.75	127.5	-127.5	-56.25	-135	-135	-127.5	-112.5
1128	71.25	135	-131.25	-60	-135	-138.75	-123.75	-108.75
1129	78.75	142.5	-131.25	-52.5	-131.25	-131.25	-120	-108.75
1130	90	138.75	-123.75	-48.75	-127.5	-127.5	-116.25	-101.25
1131	97.5	123.75	-120	-45	-116.25	-116.25	-108.75	-93.75
1132	105	105	-116.25	-37.5	-105	-112.5	-97.5	-82.5
1133	108.75	78.75	-112.5	-26.25	-97.5	-101.25	-90	-75
1134	108.75	56.25	-108.75	-15	-90	-93.75	-82.5	-67.5
1135	108.75	37.5	-101.25	-3.75	-82.5	-82.5	-75	-60
1136	108.75	30	-101.25	0	-75	-78.75	-71.25	-56.25
1137	108.75	30	-101.25	3.75	-75	-78.75	-71.25	-48.75
1138	108.75	37.5	-101.25	0	-78.75	-75	-71.25	-52.5
1139	108.75	52.5	-105	0	-78.75	-78.75	-75	-52.5
1140	112.5	63.75	-105	-3.75	-75	-82.5	-75	-56.25
1141	116.25	71.25	-108.75	-3.75	-78.75	-78.75	-71.25	-56.25
1142	116.25	75	-116.25	-7.5	-78.75	-82.5	-75	-56.25
1143	123.75	75	-120	-11.25	-78.75	-78.75	-71.25	-52.5
1144	127.5	67.5	-120	-7.5	-78.75	-78.75	-67.5	-52.5
1145	131.25	63.75	-123.75	-7.5	-78.75	-78.75	-63.75	-52.5
1146	135	63.75	-120	-7.5	-78.75	-75	-63.75	-48.75
1147	138.75	60	-123.75	-3.75	-75	-75	-67.5	-45
1148	146.25	56.25	-123.75	0	-75	-71.25	-63.75	-45
1149	153.75	60	-120	0	-78.75	-75	-63.75	-45
1150	153.75	56.25	-123.75	3.75	-78.75	-67.5	-63.75	-41.25
1151	157.5	60	-120	3.75	-78.75	-71.25	-60	-37.5
1152	153.75	56.25	-123.75	7.5	-75	-67.5	-60	-37.5
1153	157.5	60	-120	3.75	-78.75	-63.75	-56.25	-37.5
1154	157.5	63.75	-127.5	3.75	-78.75	-67.5	-56.25	-33.75
1155	157.5	71.25	-127.5	0	-78.75	-67.5	-52.5	-33.75
1156	161.25	78.75	-127.5	0	-78.75	-67.5	-52.5	-33.75
1157	165	90	-131.25	0	-78.75	-67.5	-52.5	-30
1158	172.5	97.5	-131.25	0	-82.5	-67.5	-52.5	-30
1159	176.25	105	-135	0	-78.75	-63.75	-48.75	-26.25
1160	180	108.75	-131.25	0	-82.5	-60	-48.75	-22.5
1161	180	116.25	-127.5	0	-78.75	-56.25	-45	-18.75
1162	180	116.25	-123.75	3.75	-78.75	-56.25	-45	-18.75
1163	183.75	123.75	-127.5	0	-78.75	-60	-45	-18.75
1164	180	123.75	-123.75	0	-86.25	-63.75	-48.75	-18.75
1165	176.25	131.25	-127.5	0	-93.75	-67.5	-52.5	-22.5
1166	176.25	138.75	-127.5	-7.5	-97.5	-75	-56.25	-26.25
1167	176.25	146.25	-131.25	-11.25	-105	-82.5	-60	-26.25
1168	176.25	150	-138.75	-18.75	-112.5	-90	-63.75	-33.75
1169	180	153.75	-142.5	-26.25	-120	-101.25	-71.25	-33.75
1170	176.25	153.75	-142.5	-30	-123.75	-108.75	-78.75	-37.5
1171	180	146.25	-146.25	-33.75	-127.5	-112.5	-82.5	-41.25
1172	180	142.5	-142.5	-30	-127.5	-112.5	-86.25	-41.25
1173	180	138.75	-138.75	-30	-127.5	-108.75	-86.25	-37.5
1174	183.75	135	-135	-30	-127.5	-108.75	-82.5	-41.25
1175	187.5	123.75	-127.5	-26.25	-123.75	-108.75	-82.5	-37.5
1176	187.5	116.25	-123.75	-18.75	-123.75	-105	-82.5	-37.5
1177	187.5	112.5	-116.25	-15	-123.75	-105	-78.75	-37.5
1178	187.5	97.5	-108.75	-15	-120	-101.25	-78.75	-33.75
1179	180	86.25	-101.25	-11.25	-120	-105	-78.75	-33.75
1180	176.25	75	-97.5	-7.5	-123.75	-105	-78.75	-30
1181	172.5	67.5	-93.75	-11.25	-123.75	-108.75	-82.5	-37.5
1182	161.25	63.75	-93.75	-7.5	-120	-112.5	-86.25	-37.5
1183	153.75	60	-93.75	-11.25	-123.75	-116.25	-86.25	-45
1184	146.25	67.5	-93.75	-11.25	-127.5	-123.75	-93.75	-52.5
1185	138.75	75	-93.75	-15	-127.5	-123.75	-101.25	-56.25
1186	135	82.5	-93.75	-18.75	-131.25	-131.25	-108.75	-67.5
1187	131.25	93.75	-93.75	-18.75	-135	-131.25	-112.5	-75
1188	127.5	101.25	-93.75	-18.75	-138.75	-138.75	-116.25	-78.75
1189	127.5	108.75	-86.25	-22.5	-138.75	-138.75	-123.75	-90
1190	120	112.5	-86.25	-26.25	-142.5	-142.5	-123.75	-93.75
1191	116.25	112.5	-78.75	-26.25	-142.5	-146.25	-127.5	-93.75
1192	112.5	108.75	-78.75	-26.25	-142.5	-146.25	-131.25	-97.5
1193	105	101.25	-75	-30	-138.75	-150	-131.25	-101.25
1194	97.5	93.75	-71.25	-33.75	-142.5	-153.75	-135	-101.25
1195	90	82.5	-71.25	-30	-138.75	-150	-135	-105
1196	78.75	75	-67.5	-33.75	-142.5	-153.75	-138.75	-105
1197	71.25	63.75	-71.25	-37.5	-138.75	-153.75	-146.25	-108.75
1198	71.25	56.25	-63.75	-33.75	-138.75	-153.75	-146.25	-112.5
1199	63.75	52.5	-60	-37.5	-138.75	-150	-142.5	-112.5
1200	60	45	-60	-33.75	-142.5	-150	-142.5	-112.5
1201	60	45	-52.5	-37.5	-135	-150	-142.5	-116.25
1202	52.5	37.5	-48.75	-33.75	-135	-146.25	-142.5	-112.5
1203	52.5	30	-45	-33.75	-131.25	-142.5	-135	-105
1204	48.75	22.5	-41.25	-33.75	-135	-138.75	-135	-101.25
1205	45	15	-41.25	-37.5	-131.25	-142.5	-131.25	-101.25
1206	37.5	15	-41.25	-37.5	-131.25	-138.75	-135	-105
1207	30	15	-45	-41.25	-131.25	-146.25	-138.75	-108.75
1208	26.25	18.75	-45	-45	-138.75	-150	-142.5	-116.25
1209	18.75	26.25	-48.75	-52.5	-146.25	-157.5	-153.75	-123.75
1210	15	26.25	-52.5	-60	-150	-165	-161.25	-135
1211	7.5	30	-52.5	-67.5	-153.75	-172.5	-168.75	-138.75
1212	11.25	26.25	-56.25	-75	-161.25	-176.25	-172.5	-142.5
1213	3.75	18.75	-56.25	-78.75	-161.25	-176.25	-172.5	-142.5
1214	3.75	7.5	-52.5	-78.75	-165	-172.5	-168.75	-142.5
1215	3.75	0	-52.5	-75	-161.25	-172.5	-168.75	-138.75
1216	0	-11.25	-52.5	-78.75	-161.25	-172.5	-165	-135
1217	0	-18.75	-48.75	-75	-161.25	-168.75	-165	-131.25
1218	0	-30	-52.5	-78.75	-161.25	-168.75	-165	-131.25
1219	-3.75	-33.75	-48.75	-82.5	-161.25	-168.75	-161.25	-131.25
1220	-3.75	-33.75	-48.75	-82.5	-165	-168.75	-165	-131.25
1221	-11.25	-30	-52.5	-86.25	-168.75	-172.5	-168.75	-138.75
1222	-15	-26.25	-52.5	-90	-172.5	-172.5	-172.5	-142.5
1223	-22.5	-15	-56.25	-101.25	-176.25	-180	-176.25	-150
1224	-26.25	0	-60	-108.75	-183.75	-187.5	-187.5	-153.75
1225	-26.25	15	-67.5	-120	-191.25	-195	-198.75	-161.25
1226	-26.25	30	-75	-127.5	-198.75	-202.5	-202.5	-168.75
1227	-26.25	41.25	-78.75	-131.25	-206.25	-206.25	-210	-176.25
1228	-30	41.25	-82.5	-135	-206.25	-210	-210	-172.5
1229	-26.25	30	-78.75	-135	-202.5	-206.25	-210	-172.5
1230	-26.25	15	-78.75	-123.75	-198.75	-202.5	-202.5	-165
1231	-26.25	-7.5	-67.5	-116.25	-187.5	-195	-191.25	-157.5
1232	-26.25	-41.25	-60	-105	-176.25	-180	-180	-150
1233	-26.25	-67.5	-52.5	-93.75	-165	-168.75	-168.75	-135
1234	-26.25	-90	-41.25	-86.25	-153.75	-161.25	-161.25	-131.25
1235	-22.5	-108.75	-33.75	-78.75	-146.25	-153.75	-153.75	-123.75
1236	-18.75	-116.25	-30	-75	-146.25	-150	-150	-120
1237	-18.75	-116.25	-30	-78.75	-142.5	-150	-150	-120
1238	-15	-101.25	-30	-82.5	-146.25	-150	-153.75	-120
1239	-18.75	-86.25	-33.75	-86.25	-153.75	-157.5	-157.5	-123.75
1240	-18.75	-71.25	-41.25	-86.25	-153.75	-161.25	-161.25	-123.75
1241	-18.75	-56.25	-48.75	-93.75	-157.5	-165	-165	-131.25
1242	-18.75	-41.25	-52.5	-97.5	-165	-168.75	-165	-131.25
1243	-18.75	-30	-56.25	-101.25	-168.75	-168.75	-165	-138.75
1244	-22.5	-26.25	-63.75	-105	-168.75	-168.75	-168.75	-138.75
1245	-18.75	-26.25	-67.5	-105	-168.75	-168.75	-168.75	-138.75
1246	-22.5	-26.25	-67.5	-105	-165	-165	-168.75	-138.75
1247	-26.25	-30	-71.25	-101.25	-165	-161.25	-165	-138.75
1248	-26.25	-37.5	-67.5	-101.25	-161.25	-157.5	-165	-138.75
1249	-26.25	-45	-60	-101.25	-161.25	-157.5	-157.5	-135
1250	-26.25	-45	-60	-97.5	-153.75	-153.75	-161.25	-135
1251	-22.5	-45	-60	-90	-153.75	-153.75	-157.5	-131.25
1252	-26.25	-37.5	-60	-90	-150	-153.75	-157.5	-131.25
1253	-26.25	-26.25	-60	-90	-153.75	-157.5	-161.25	-131.25
1254	-26.25	-15	-63.75	-93.75	-153.75	-157.5	-165	-131.25
1255	-30	-3.75	-67.5	-97.5	-161.25	-161.25	-168.75	-135
1256	-30	3.75	-75	-101.25	-161.25	-172.5	-176.25	-138.75
1257	-30	11.25	-78.75	-105	-165	-176.25	-180	-142.5
1258	-33.75	11.25	-82.5	-108.75	-168.75	-172.5	-180	-146.25
1259	-30	3.75	-82.5	-108.75	-165	-176.25	-176.25	-142.5
1260	-33.75	0	-82.5	-105	-161.25	-168.75	-176.25	-142.5
1261	-30	-18.75	-75	-101.25	-161.25	-161.25	-172.5	-135
1262	-26.25	-30	-75	-101.25	-157.5	-153.75	-165	-131.25
1263	-22.5	-45	-71.25	-93.75	-146.25	-146.25	-153.75	-123.75
1264	-22.5	-56.25	-67.5	-90	-142.5	-142.5	-146.25	-120
1265	-22.5	-63.75	-63.75	-86.25	-138.75	-138.75	-142.5	-116.25
1266	-18.75	-63.75	-63.75	-86.25	-138.75	-135	-138.75	-112.5
1267	-18.75	-63.75	-67.5	-86.25	-135	-135	-135	-112.5
1268	-22.5	-56.25	-63.75	-86.25	-135	-142.5	-138.75	-112.5
1269	-22.5	-45	-71.25	-86.25	-142.5	-142.5	-142.5	-116.25
1270	-18.75	-37.5	-71.25	-90	-146.25	-146.25	-150	-116.25
1271	-22.5	-26.25	-71.25	-93.75	-146.25	-153.75	-153.75	-123.75
1272	-22.5	-15	-75	-97.5	-150	-157.5	-157.5	-123.75
1273	-26.25	-11.25	-78.75	-101.25	-153.75	-161.25	-161.25	-123.75
1274	-22.5	-7.5	-82.5	-105	-157.5	-161.25	-165	-127.5
1275	-22.5	-7.5	-82.5	-105	-153.75	-161.25	-161.25	-131.25
1276	-26.25	-7.5	-82.5	-108.75	-157.5	-165	-161.25	-127.5
1277	-22.5	-7.5	-82.5	-105	-157.5	-161.25	-165	-127.5
1278	-26.25	-11.25	-82.5	-108.75	-153.75	-161.25	-157.5	-127.5
1279	-22.5	-15	-82.5	-105	-153.75	-161.25	-157.5	-127.5
1280	-26.25	-18.75	-86.25	-105	-157.5	-157.5	-153.75	-127.5
1281	-26.25	-22.5	-86.25	-108.75	-157.5	-157.5	-153.75	-127.5
1282	-26.25	-18.75	-90	-108.75	-161.25	-157.5	-153.75	-127.5
1283	-30	-18.75	-90	-108.75	-161.25	-157.5	-157.5	-131.25
1284	-33.75	-26.25	-86.25	-112.5	-157.5	-157.5	-161.25	-131.25
1285	-33.75	-30	-90	-112.5	-161.25	-157.5	-161.25	-123.75
1286	-33.75	-37.5	-86.25	-112.5	-157.5	-157.5	-157.5	-123.75
1287	-37.5	-48.75	-82.5	-112.5	-153.75	-153.75	-157.5	-123.75
1288	-37.5	-60	-82.5	-108.75	-153.75	-153.75	-153.75	-120
1289	-41.25	-67.5	-82.5	-105	-150	-153.75	-153.75	-116.25
1290	-37.5	-75	-78.75	-101.25	-146.25	-153.75	-150	-116.25
1291	-37.5	-82.5	-78.75	-101.25	-146.25	-146.25	-150	-116.25
1292	-41.25	-86.25	-75	-101.25	-150	-150	-146.25	-112.5
1293	-33.75	-82.5	-75	-97.5	-146.25	-146.25	-146.25	-112.5
1294	-33.75	-78.75	-78.75	-101.25	-150	-146.25	-150	-116.25
1295	-33.75	-67.5	-82.5	-108.75	-150	-150	-150	-116.25
1296	-33.75	-56.25	-86.25	-116.25	-157.5	-153.75	-157.5	-120
1297	-33.75	-37.5	-93.75	-123.75	-161.25	-161.25	-161.25	-127.5
1298	-33.75	-22.5	-101.25	-135	-172.5	-168.75	-168.75	-131.25
1299	-33.75	-7.5	-105	-142.5	-180	-176.25	-176.25	-138.75
1300	-37.5	0	-112.5	-146.25	-183.75	-183.75	-183.75	-146.25
1301	-37.5	0	-116.25	-150	-187.5	-191.25	-187.5	-150
1302	-37.5	-7.5	-116.25	-150	-187.5	-191.25	-187.5	-150
1303	-41.25	-22.5	-112.5	-146.25	-183.75	-187.5	-183.75	-146.25
1304	-37.5	-37.5	-105	-142.5	-180	-183.75	-180	-142.5
1305	-41.25	-52.5	-105	-138.75	-180	-180	-180	-138.75
1306	-33.75	-63.75	-93.75	-135	-176.25	-172.5	-176.25	-135
1307	-33.75	-75	-90	-131.25	-172.5	-168.75	-168.75	-131.25
1308	-33.75	-82.5	-86.25	-127.5	-168.75	-161.25	-165	-120
1309	-33.75	-90	-82.5	-123.75	-161.25	-153.75	-157.5	-120
1310	-37.5	-93.75	-78.75	-120	-157.5	-150	-150	-116.25
1311	-33.75	-97.5	-71.25	-120	-157.5	-146.25	-150	-108.75
1312	-37.5	-97.5	-71.25	-116.25	-153.75	-150	-146.25	-108.75
1313	-45	-97.5	-71.25	-120	-157.5	-150	-153.75	-108.75
1314	-45	-90	-75	-120	-157.5	-153.75	-153.75	-116.25
1315	-48.75	-82.5	-78.75	-123.75	-161.25	-157.5	-157.5	-120
1316	-52.5	-75	-90	-127.5	-168.75	-161.25	-165	-127.5
1317	-52.5	-67.5	-97.5	-135	-176.25	-168.75	-172.5	-131.25
1318	-52.5	-60	-105	-142.5	-176.25	-172.5	-172.5	-135
1319	-52.5	-48.75	-108.75	-150	-183.75	-176.25	-180	-142.5
1320	-52.5	-41.25	-116.25	-157.5	-191.25	-183.75	-187.5	-146.25
1321	-52.5	-37.5	-116.25	-161.25	-195	-187.5	-187.5	-150
1322	-56.25	-37.5	-120	-165	-198.75	-187.5	-195	-150
1323	-52.5	-33.75	-116.25	-168.75	-198.75	-191.25	-195	-150
1324	-56.25	-37.5	-120	-165	-198.75	-191.25	-195	-153.75
1325	-60	-37.5	-116.25	-168.75	-198.75	-187.5	-191.25	-153.75
1326	-60	-41.25	-116.25	-165	-198.75	-187.5	-195	-150
1327	-60	-45	-112.5	-161.25	-198.75	-187.5	-191.25	-153.75
1328	-60	-52.5	-116.25	-161.25	-195	-187.5	-195	-153.75
1329	-63.75	-56.25	-112.5	-157.5	-195	-187.5	-191.25	-153.75
1330	-63.75	-63.75	-112.5	-157.5	-195	-183.75	-191.25	-150
1331	-60	-71.25	-112.5	-157.5	-191.25	-183.75	-191.25	-150
1332	-60	-75	-108.75	-157.5	-187.5	-183.75	-187.5	-150
1333	-60	-82.5	-108.75	-153.75	-187.5	-183.75	-191.25	-146.25
1334	-60	-82.5	-105	-150	-191.25	-180	-191.25	-142.5
1335	-60	-82.5	-105	-150	-187.5	-183.75	-187.5	-142.5
1336	-60	-82.5	-101.25	-150	-187.5	-180	-187.5	-142.5
1337	-56.25	-86.25	-97.5	-146.25	-180	-176.25	-183.75	-142.5
1338	-52.5	-90	-93.75	-142.5	-176.25	-172.5	-180	-138.75
1339	-48.75	-90	-82.5	-138.75	-172.5	-168.75	-172.5	-131.25
1340	-45	-93.75	-75	-131.25	-165	-161.25	-165	-123.75
1341	-45	-97.5	-67.5	-123.75	-157.5	-153.75	-157.5	-120
1342	-41.25	-93.75	-60	-112.5	-150	-146.25	-153.75	-116.25
1343	-37.5	-90	-52.5	-108.75	-142.5	-142.5	-146.25	-112.5
1344	-30	-82.5	-41.25	-101.25	-138.75	-138.75	-142.5	-105
1345	-30	-63.75	-37.5	-97.5	-135	-135	-142.5	-101.25
1346	-22.5	-48.75	-33.75	-93.75	-135	-135	-142.5	-101.25
1347	-18.75	-30	-33.75	-97.5	-131.25	-135	-138.75	-101.25
1348	-18.75	-11.25	-33.75	-97.5	-138.75	-138.75	-142.5	-105
1349	-15	0	-33.75	-101.25	-138.75	-138.75	-142.5	-105
1350	-15	11.25	-30	-101.25	-142.5	-142.5	-146.25	-108.75
1351	-15	22.5	-33.75	-97.5	-146.25	-146.25	-146.25	-108.75
1352	-15	22.5	-30	-97.5	-142.5	-146.25	-150	-108.75
1353	-15	26.25	-26.25	-101.25	-146.25	-142.5	-146.25	-112.5
1354	-15	18.75	-26.25	-97.5	-142.5	-146.25	-150	-112.5
1355	-18.75	22.5	-26.25	-97.5	-138.75	-142.5	-146.25	-116.25
1356	-15	26.25	-30	-97.5	-142.5	-142.5	-150	-112.5
1357	-18.75	30	-33.75	-93.75	-138.75	-142.5	-146.25	-116.25
1358	-15	45	-37.5	-101.25	-135	-138.75	-150	-116.25
1359	-15	63.75	-48.75	-101.25	-138.75	-142.5	-146.25	-116.25
1360	-7.5	82.5	-60	-105	-138.75	-146.25	-146.25	-116.25
1361	-3.75	97.5	-71.25	-112.5	-142.5	-146.25	-150	-112.5
1362	0	101.25	-82.5	-112.5	-138.75	-142.5	-146.25	-116.25
1363	3.75	101.25	-93.75	-120	-142.5	-146.25	-146.25	-112.5
1364	11.25	90	-101.25	-116.25	-142.5	-138.75	-142.5	-108.75
1365	22.5	75	-105	-116.25	-142.5	-138.75	-142.5	-101.25
1366	26.25	52.5	-105	-120	-135	-138.75	-138.75	-97.5
1367	33.75	33.75	-105	-116.25	-138.75	-138.75	-135	-97.5
1368	37.5	22.5	-105	-120	-135	-138.75	-131.25	-97.5
1369	41.25	15	-108.75	-116.25	-135	-138.75	-131.25	-97.5
1370	41.25	11.25	-108.75	-123.75	-135	-138.75	-131.25	-93.75
1371	37.5	3.75	-105	-120	-135	-135	-131.25	-93.75
1372	41.25	3.75	-105	-123.75	-131.25	-135	-127.5	-90
1373	37.5	3.75	-101.25	-120	-131.25	-135	-127.5	-90
1374	33.75	3.75	-101.25	-120	-131.25	-131.25	-127.5	-90
1375	33.75	0	-105	-120	-135	-135	-131.25	-93.75
1376	30	0	-101.25	-120	-135	-138.75	-135	-93.75
1377	26.25	-3.75	-101.25	-127.5	-142.5	-138.75	-138.75	-101.25
1378	22.5	-3.75	-105	-131.25	-146.25	-146.25	-146.25	-108.75
1379	18.75	-3.75	-105	-135	-150	-150	-153.75	-116.25
1380	11.25	-7.5	-105	-138.75	-153.75	-157.5	-161.25	-123.75
1381	3.75	-11.25	-105	-146.25	-161.25	-161.25	-165	-127.5
1382	0	-15	-105	-150	-165	-168.75	-168.75	-135
1383	0	-22.5	-105	-150	-168.75	-172.5	-168.75	-135
1384	-3.75	-30	-108.75	-153.75	-172.5	-176.25	-168.75	-135
1385	-3.75	-30	-108.75	-153.75	-176.25	-176.25	-168.75	-138.75
1386	-3.75	-33.75	-108.75	-153.75	-176.25	-176.25	-168.75	-142.5
1387	-3.75	-37.5	-112.5	-161.25	-180	-180	-172.5	-142.5
1388	0	-37.5	-112.5	-161.25	-180	-183.75	-176.25	-142.5
1389	0	-33.75	-112.5	-165	-183.75	-183.75	-180	-146.25
1390	0	-33.75	-112.5	-165	-183.75	-187.5	-183.75	-146.25
1391	0	-37.5	-112.5	-165	-183.75	-187.5	-187.5	-150
1392	0	-37.5	-112.5	-161.25	-187.5	-191.25	-191.25	-153.75
1393	0	-33.75	-112.5	-165	-187.5	-195	-195	-153.75
1394	0	-33.75	-112.5	-165	-187.5	-198.75	-195	-157.5
1395	-3.75	-30	-112.5	-168.75	-191.25	-195	-195	-157.5
1396	-3.75	-22.5	-116.25	-168.75	-191.25	-198.75	-195	-161.25
1397	-7.5	-15	-120	-172.5	-198.75	-202.5	-195	-165
1398	-15	-7.5	-123.75	-176.25	-198.75	-206.25	-202.5	-165
1399	-22.5	0	-135	-180	-202.5	-202.5	-206.25	-168.75
1400	-26.25	7.5	-142.5	-187.5	-206.25	-210	-206.25	-176.25
1401	-30	15	-142.5	-191.25	-206.25	-210	-210	-176.25
1402	-30	18.75	-142.5	-195	-206.25	-213.75	-213.75	-176.25
1403	-26.25	15	-146.25	-195	-210	-210	-213.75	-176.25
1404	-30	11.25	-138.75	-195	-202.5	-210	-210	-172.5
1405	-26.25	0	-131.25	-187.5	-198.75	-206.25	-206.25	-165
1406	-22.5	-15	-123.75	-176.25	-195	-202.5	-202.5	-157.5
1407	-26.25	-37.5	-116.25	-168.75	-191.25	-195	-191.25	-153.75
1408	-22.5	-63.75	-105	-157.5	-183.75	-191.25	-183.75	-146.25
1409	-22.5	-90	-86.25	-138.75	-172.5	-183.75	-180	-142.5
1410	-26.25	-108.75	-71.25	-120	-165	-183.75	-180	-142.5
1411	-22.5	-127.5	-52.5	-97.5	-157.5	-180	-183.75	-150
1412	-18.75	-142.5	-26.25	-71.25	-146.25	-183.75	-187.5	-153.75
1413	-11.25	-146.25	0	-37.5	-127.5	-183.75	-198.75	-165
1414	-3.75	-138.75	33.75	0	-108.75	-183.75	-206.25	-172.5
1415	7.5	-123.75	71.25	48.75	-86.25	-180	-213.75	-183.75
1416	30	-101.25	116.25	105	-56.25	-172.5	-210	-187.5
1417	48.75	-71.25	153.75	165	-22.5	-161.25	-210	-183.75
1418	75	-30	195	232.5	18.75	-131.25	-191.25	-168.75
1419	108.75	22.5	228.75	296.25	71.25	-93.75	-157.5	-146.25
1420	146.25	82.5	258.75	363.75	131.25	-37.5	-112.5	-112.5
1421	187.5	150	281.25	431.25	202.5	30	-45	-56.25
1422	232.5	225	292.5	495	281.25	112.5	33.75	11.25
1423	273.75	303.75	292.5	547.5	360	206.25	127.5	97.5
1424	322.5	390	288.75	592.5	450	315	240	198.75
1425	367.5	480	270	618.75	532.5	431.25	360	315
1426	412.5	581.25	240	633.75	618.75	555	487.5	435
1427	457.5	697.5	195	630	697.5	678.75	622.5	566.25
1428	502.5	821.25	138.75	615	772.5	810	768.75	701.25
1429	540	948.75	67.5	577.5	840	937.5	907.5	832.5
1430	570	1072.5	-11.25	525	900	1061.25	1050	963.75
1431	588.75	1185	-105	453.75	952.5	1181.25	1185	1083.75
1432	600	1278.75	-195	371.25	990	1290	1312.5	1192.5
1433	596.25	1338.75	-285	281.25	1023.75	1387.5	1421.25	1282.5
1434	577.5	1372.5	-363.75	180	1038.75	1462.5	1503.75	1353.75
1435	547.5	1365	-431.25	78.75	1035	1503.75	1548.75	1383.75
1436	502.5	1331.25	-483.75	-30	1012.5	1507.5	1552.5	1383.75
1437	438.75	1260	-528.75	-138.75	952.5	1466.25	1507.5	1338.75
1438	367.5	1170	-558.75	-251.25	862.5	1368.75	1413.75	1252.5
1439	288.75	1057.5	-585	-367.5	738.75	1230	1275	1132.5
1440	206.25	937.5	-600	-476.25	585	1053.75	1095	978.75
1441	120	810	-611.25	-581.25	416.25	847.5	888.75	802.5
1442	45	686.25	-615	-667.5	240	630	682.5	618.75
1443	-15	570	-615	-727.5	82.5	427.5	480	450
1444	-67.5	461.25	-611.25	-765	-48.75	255	303.75	292.5
1445	-108.75	363.75	-596.25	-772.5	-146.25	112.5	165	172.5
1446	-131.25	273.75	-573.75	-757.5	-206.25	11.25	67.5	82.5
1447	-146.25	195	-543.75	-720	-236.25	-45	0	26.25
1448	-146.25	131.25	-510	-671.25	-240	-78.75	-37.5	0
1449	-142.5	78.75	-472.5	-615	-228.75	-93.75	-56.25	-11.25
1450	-131.25	45	-435	-551.25	-213.75	-97.5	-63.75	-18.75
1451	-120	22.5	-401.25	-487.5	-198.75	-97.5	-67.5	-22.5
1452	-101.25	18.75	-371.25	-427.5	-183.75	-93.75	-75	-22.5
1453	-82.5	26.25	-341.25	-371.25	-168.75	-93.75	-78.75	-33.75
1454	-60	33.75	-315	-315	-153.75	-93.75	-82.5	-41.25
1455	-37.5	41.25	-292.5	-266.25	-138.75	-90	-82.5	-48.75
1456	-18.75	52.5	-266.25	-221.25	-120	-86.25	-78.75	-56.25
1457	-3.75	56.25	-243.75	-187.5	-101.25	-78.75	-78.75	-56.25
1458	11.25	52.5	-217.5	-157.5	-82.5	-67.5	-75	-52.5
1459	18.75	45	-191.25	-131.25	-63.75	-60	-67.5	-48.75
1460	22.5	41.25	-165	-116.25	-52.5	-48.75	-60	-45
1461	22.5	33.75	-142.5	-101.25	-41.25	-45	-60	-45
1462	18.75	22.5	-123.75	-97.5	-41.25	-45	-60	-45
1463	15	18.75	-112.5	-90	-48.75	-52.5	-71.25	-52.5
1464	7.5	22.5	-105	-86.25	-56.25	-63.75	-78.75	-60
1465	0	18.75	-105	-82.5	-67.5	-75	-90	-75
1466	-3.75	15	-105	-78.75	-75	-90	-105	-86.25
1467	-3.75	18.75	-108.75	-78.75	-82.5	-101.25	-116.25	-97.5
1468	-3.75	18.75	-108.75	-71.25	-82.5	-108.75	-123.75	-108.75
1469	0	15	-101.25	-67.5	-82.5	-112.5	-127.5	-105
1470	3.75	11.25	-101.25	-63.75	-75	-108.75	-123.75	-105
1471	7.5	11.25	-93.75	-60	-71.25	-105	-116.25	-97.5
1472	15	11.25	-90	-56.25	-63.75	-97.5	-112.5	-86.25
1473	22.5	11.25	-82.5	-56.25	-60	-93.75	-108.75	-78.75
1474	22.5	15	-78.75	-56.25	-60	-90	-101.25	-75
1475	26.25	11.25	-78.75	-56.25	-60	-90	-101.25	-75
1476	26.25	15	-78.75	-52.5	-63.75	-93.75	-101.25	-75
1477	30	11.25	-78.75	-52.5	-67.5	-93.75	-105	-78.75
1478	33.75	11.25	-78.75	-48.75	-67.5	-97.5	-108.75	-82.5
1479	33.75	3.75	-82.5	-48.75	-71.25	-97.5	-112.5	-90
1480	33.75	0	-86.25	-45	-67.5	-97.5	-112.5	-93.75
1481	30	-3.75	-82.5	-41.25	-71.25	-97.5	-112.5	-97.5
1482	30	-3.75	-86.25	-41.25	-67.5	-97.5	-116.25	-97.5
1483	30	-7.5	-86.25	-41.25	-67.5	-97.5	-112.5	-93.75
1484	22.5	-7.5	-86.25	-37.5	-63.75	-93.75	-108.75	-93.75
1485	18.75	-7.5	-82.5	-37.5	-60	-93.75	-105	-86.25
1486	18.75	-7.5	-78.75	-33.75	-60	-86.25	-105	-78.75
1487	22.5	-3.75	-75	-30	-52.5	-86.25	-97.5	-78.75
1488	18.75	-7.5	-75	-30	-52.5	-78.75	-97.5	-75
1489	22.5	-7.5	-75	-26.25	-48.75	-78.75	-93.75	-75
1490	26.25	0	-78.75	-30	-52.5	-82.5	-93.75	-75
1491	30	3.75	-78.75	-26.25	-52.5	-82.5	-97.5	-78.75
1492	33.75	18.75	-86.25	-30	-52.5	-86.25	-93.75	-82.5
1493	41.25	37.5	-90	-33.75	-56.25	-90	-101.25	-86.25
1494	48.75	56.25	-97.5	-37.5	-60	-93.75	-105	-90
1495	52.5	71.25	-105	-37.5	-63.75	-93.75	-108.75	-90
1496	52.5	82.5	-112.5	-41.25	-67.5	-97.5	-108.75	-93.75
1497	52.5	78.75	-112.5	-41.25	-67.5	-97.5	-105	-90
1498	52.5	71.25	-112.5	-41.25	-67.5	-90	-105	-86.25
1499	52.5	56.25	-105	-37.5	-60	-82.5	-97.5	-78.75
1500	48.75	30	-101.25	-26.25	-52.5	-78.75	-86.25	-71.25
1501	52.5	7.5	-93.75	-18.75	-45	-71.25	-78.75	-63.75
1502	52.5	-7.5	-86.25	-3.75	-33.75	-63.75	-71.25	-56.25
1503	52.5	-15	-82.5	0	-26.25	-56.25	-63.75	-52.5
1504	56.25	-15	-82.5	7.5	-22.5	-52.5	-60	-52.5
1505	60	-3.75	-78.75	11.25	-18.75	-52.5	-60	-48.75
1506	63.75	3.75	-86.25	11.25	-15	-48.75	-60	-52.5
1507	67.5	18.75	-86.25	11.25	-15	-45	-60	-48.75
1508	67.5	33.75	-90	7.5	-15	-48.75	-60	-48.75
1509	67.5	45	-93.75	3.75	-15	-45	-60	-52.5
1510	71.25	56.25	-93.75	3.75	-18.75	-45	-56.25	-52.5
1511	75	63.75	-97.5	3.75	-18.75	-45	-60	-48.75
1512	78.75	71.25	-101.25	3.75	-22.5	-41.25	-56.25	-52.5
1513	78.75	75	-101.25	0	-18.75	-41.25	-56.25	-52.5
1514	82.5	75	-108.75	0	-22.5	-45	-52.5	-56.25
1515	82.5	75	-108.75	0	-18.75	-41.25	-56.25	-56.25
1516	82.5	78.75	-112.5	0	-15	-37.5	-56.25	-56.25
1517	82.5	78.75	-116.25	3.75	-15	-37.5	-52.5	-56.25
1518	86.25	78.75	-120	3.75	-15	-37.5	-48.75	-48.75
1519	86.25	71.25	-116.25	3.75	-7.5	-30	-48.75	-48.75
1520	86.25	63.75	-116.25	11.25	-3.75	-26.25	-45	-45
1521	86.25	52.5	-108.75	18.75	0	-22.5	-33.75	-33.75
1522	90	37.5	-108.75	26.25	3.75	-15	-30	-26.25
1523	90	22.5	-108.75	30	11.25	-7.5	-22.5	-18.75
1524	90	15	-105	33.75	11.25	-7.5	-22.5	-18.75
1525	90	15	-108.75	37.5	15	-3.75	-15	-15
1526	90	18.75	-112.5	37.5	15	-3.75	-18.75	-15
1527	90	26.25	-108.75	33.75	15	-3.75	-18.75	-18.75
1528	97.5	33.75	-116.25	33.75	15	-7.5	-22.5	-22.5
1529	105	52.5	-120	30	7.5	-7.5	-22.5	-22.5
1530	112.5	67.5	-120	30	7.5	-11.25	-26.25	-22.5
1531	123.75	78.75	-127.5	26.25	3.75	-15	-26.25	-26.25
1532	131.25	90	-127.5	26.25	3.75	-15	-26.25	-26.25
1533	142.5	97.5	-127.5	26.25	3.75	-15	-30	-26.25
1534	150	97.5	-131.25	26.25	0	-15	-30	-22.5
1535	150	97.5	-131.25	22.5	0	-18.75	-30	-22.5
1536	150	97.5	-135	22.5	0	-18.75	-26.25	-26.25
1537	146.25	101.25	-131.25	22.5	0	-18.75	-33.75	-22.5
1538	150	101.25	-138.75	18.75	0	-22.5	-30	-22.5
1539	146.25	101.25	-135	22.5	-3.75	-22.5	-30	-22.5
1540	146.25	101.25	-131.25	22.5	-7.5	-22.5	-26.25	-18.75
1541	146.25	97.5	-135	22.5	-3.75	-22.5	-30	-18.75
1542	142.5	101.25	-135	26.25	-7.5	-22.5	-26.25	-18.75
1543	146.25	101.25	-135	22.5	-15	-26.25	-30	-18.75
1544	150	97.5	-135	18.75	-18.75	-30	-30	-18.75
1545	146.25	97.5	-138.75	22.5	-18.75	-30	-33.75	-18.75
1546	150	90	-138.75	15	-18.75	-33.75	-37.5	-18.75
1547	150	78.75	-138.75	18.75	-22.5	-37.5	-33.75	-18.75
1548	150	63.75	-131.25	15	-22.5	-33.75	-37.5	-15
1549	150	52.5	-131.25	15	-26.25	-37.5	-33.75	-18.75
1550	146.25	41.25	-127.5	18.75	-26.25	-41.25	-33.75	-15
1551	150	33.75	-123.75	15	-30	-41.25	-33.75	-15
1552	146.25	33.75	-123.75	15	-33.75	-48.75	-41.25	-15
1553	146.25	37.5	-120	15	-41.25	-52.5	-41.25	-22.5
1554	146.25	41.25	-120	11.25	-48.75	-60	-45	-22.5
1555	150	45	-120	7.5	-52.5	-67.5	-48.75	-26.25
1556	146.25	41.25	-120	3.75	-60	-67.5	-56.25	-30
1557	146.25	45	-120	0	-67.5	-75	-63.75	-33.75
1558	146.25	45	-120	0	-67.5	-82.5	-67.5	-37.5
1559	142.5	45	-116.25	-3.75	-71.25	-86.25	-71.25	-41.25
1560	142.5	48.75	-120	-7.5	-75	-90	-75	-45
1561	135	52.5	-116.25	-11.25	-82.5	-93.75	-78.75	-48.75
1562	127.5	60	-112.5	-11.25	-82.5	-97.5	-82.5	-52.5
1563	123.75	63.75	-116.25	-15	-86.25	-97.5	-86.25	-56.25
1564	112.5	67.5	-108.75	-15	-90	-101.25	-86.25	-60
1565	101.25	67.5	-105	-15	-90	-101.25	-86.25	-63.75
1566	93.75	67.5	-97.5	-11.25	-93.75	-97.5	-86.25	-60
1567	86.25	56.25	-90	-7.5	-90	-97.5	-90	-63.75
1568	75	48.75	-86.25	-7.5	-90	-101.25	-90	-67.5
1569	71.25	33.75	-78.75	-7.5	-90	-97.5	-93.75	-63.75
1570	63.75	22.5	-71.25	0	-86.25	-101.25	-97.5	-67.5
1571	63.75	11.25	-63.75	0	-86.25	-105	-97.5	-71.25
1572	60	0	-60	0	-82.5	-105	-101.25	-75
1573	52.5	-3.75	-56.25	0	-86.25	-108.75	-101.25	-78.75
1574	45	-11.25	-52.5	0	-82.5	-112.5	-101.25	-82.5
1575	33.75	-11.25	-48.75	0	-86.25	-112.5	-108.75	-86.25
1576	30	-11.25	-52.5	-3.75	-90	-116.25	-112.5	-90
1577	18.75	-7.5	-48.75	-7.5	-93.75	-123.75	-120	-97.5
1578	7.5	0	-52.5	-15	-97.5	-131.25	-127.5	-101.25
1579	3.75	7.5	-56.25	-22.5	-101.25	-138.75	-131.25	-108.75
1580	0	11.25	-56.25	-26.25	-112.5	-142.5	-138.75	-120
1581	-7.5	15	-63.75	-33.75	-116.25	-146.25	-138.75	-123.75
1582	-11.25	11.25	-63.75	-37.5	-120	-150	-142.5	-123.75
1583	-11.25	3.75	-60	-37.5	-120	-146.25	-142.5	-123.75
1584	-15	-11.25	-56.25	-41.25	-116.25	-146.25	-138.75	-123.75
1585	-22.5	-30	-48.75	-33.75	-108.75	-142.5	-138.75	-120
1586	-22.5	-56.25	-41.25	-30	-105	-138.75	-131.25	-116.25
1587	-30	-75	-33.75	-26.25	-101.25	-135	-131.25	-120
1588	-33.75	-86.25	-30	-26.25	-101.25	-131.25	-131.25	-116.25
1589	-41.25	-90	-30	-30	-97.5	-131.25	-131.25	-116.25
1590	-41.25	-86.25	-30	-30	-101.25	-135	-135	-123.75
1591	-45	-78.75	-33.75	-37.5	-101.25	-135	-135	-123.75
1592	-48.75	-67.5	-37.5	-41.25	-105	-135	-146.25	-127.5
1593	-48.75	-60	-37.5	-48.75	-112.5	-142.5	-150	-135
1594	-52.5	-56.25	-41.25	-56.25	-120	-146.25	-150	-138.75
1595	-52.5	-60	-45	-60	-123.75	-150	-153.75	-142.5
1596	-52.5	-67.5	-45	-67.5	-123.75	-153.75	-157.5	-146.25
1597	-56.25	-75	-45	-67.5	-127.5	-157.5	-157.5	-142.5
1598	-60	-86.25	-45	-67.5	-131.25	-153.75	-157.5	-142.5
1599	-60	-97.5	-41.25	-71.25	-131.25	-161.25	-161.25	-146.25
1600	-63.75	-108.75	-41.25	-71.25	-131.25	-157.5	-157.5	-142.5
1601	-67.5	-116.25	-37.5	-71.25	-127.5	-161.25	-161.25	-142.5
1602	-75	-127.5	-37.5	-71.25	-131.25	-157.5	-161.25	-146.25
1603	-78.75	-135	-37.5	-71.25	-127.5	-161.25	-161.25	-138.75
1604	-86.25	-135	-37.5	-71.25	-131.25	-161.25	-161.25	-142.5
1605	-90	-131.25	-37.5	-75	-131.25	-165	-161.25	-142.5
1606	-93.75	-131.25	-37.5	-75	-135	-165	-168.75	-142.5
1607	-93.75	-123.75	-41.25	-75	-138.75	-165	-172.5	-146.25
1608	-93.75	-116.25	-45	-78.75	-138.75	-168.75	-172.5	-153.75
1609	-93.75	-112.5	-45	-86.25	-142.5	-176.25	-176.25	-157.5
1610	-93.75	-105	-45	-90	-146.25	-180	-180	-161.25
1611	-93.75	-105	-52.5	-90	-150	-183.75	-183.75	-168.75
1612	-90	-101.25	-56.25	-93.75	-153.75	-187.5	-183.75	-168.75
1613	-97.5	-101.25	-56.25	-101.25	-153.75	-187.5	-191.25	-168.75
1614	-97.5	-97.5	-63.75	-101.25	-153.75	-191.25	-195	-172.5
1615	-97.5	-93.75	-63.75	-105	-157.5	-195	-195	-172.5
1616	-101.25	-93.75	-67.5	-105	-157.5	-195	-195	-172.5
1617	-101.25	-90	-67.5	-105	-157.5	-195	-195	-172.5
1618	-101.25	-90	-67.5	-105	-161.25	-195	-198.75	-172.5
1619	-105	-90	-63.75	-105	-161.25	-195	-198.75	-172.5
1620	-105	-90	-63.75	-105	-161.25	-191.25	-195	-172.5
1621	-105	-90	-60	-101.25	-161.25	-191.25	-195	-172.5
1622	-108.75	-86.25	-60	-101.25	-161.25	-191.25	-191.25	-172.5
1623	-108.75	-90	-60	-97.5	-157.5	-187.5	-187.5	-172.5
1624	-108.75	-97.5	-60	-93.75	-150	-180	-183.75	-165
1625	-108.75	-105	-60	-93.75	-150	-176.25	-176.25	-165
1626	-105	-112.5	-52.5	-86.25	-142.5	-168.75	-172.5	-157.5
1627	-108.75	-123.75	-45	-82.5	-135	-161.25	-161.25	-150
1628	-105	-135	-45	-75	-127.5	-153.75	-153.75	-142.5
1629	-101.25	-142.5	-37.5	-67.5	-120	-146.25	-150	-135
1630	-105	-150	-33.75	-63.75	-116.25	-146.25	-146.25	-131.25
1631	-97.5	-150	-30	-60	-116.25	-146.25	-146.25	-127.5
1632	-101.25	-146.25	-30	-60	-116.25	-146.25	-146.25	-127.5
1633	-97.5	-146.25	-33.75	-60	-116.25	-146.25	-150	-131.25
1634	-97.5	-146.25	-33.75	-63.75	-116.25	-150	-146.25	-131.25
1635	-97.5	-142.5	-33.75	-60	-120	-146.25	-150	-135
1636	-97.5	-142.5	-30	-63.75	-116.25	-150	-150	-131.25
1637	-93.75	-146.25	-33.75	-63.75	-116.25	-146.25	-150	-135
1638	-93.75	-146.25	-33.75	-63.75	-116.25	-142.5	-146.25	-131.25
1639	-93.75	-146.25	-33.75	-63.75	-112.5	-142.5	-146.25	-131.25
1640	-93.75	-146.25	-37.5	-63.75	-112.5	-142.5	-142.5	-127.5
1641	-93.75	-146.25	-37.5	-60	-112.5	-138.75	-142.5	-127.5
1642	-90	-146.25	-41.25	-63.75	-108.75	-142.5	-142.5	-127.5
1643	-90	-146.25	-41.25	-60	-108.75	-142.5	-138.75	-127.5
1644	-93.75	-142.5	-41.25	-63.75	-112.5	-142.5	-142.5	-131.25
1645	-93.75	-135	-45	-67.5	-120	-146.25	-146.25	-131.25
1646	-93.75	-127.5	-48.75	-71.25	-123.75	-150	-153.75	-138.75
1647	-97.5	-120	-52.5	-75	-123.75	-153.75	-153.75	-142.5
1648	-97.5	-116.25	-56.25	-78.75	-131.25	-157.5	-161.25	-150
1649	-101.25	-112.5	-60	-86.25	-135	-165	-168.75	-153.75
1650	-97.5	-112.5	-67.5	-86.25	-138.75	-165	-168.75	-157.5
1651	-97.5	-112.5	-67.5	-90	-142.5	-172.5	-172.5	-157.5
1652	-97.5	-116.25	-67.5	-93.75	-142.5	-176.25	-176.25	-161.25
1653	-93.75	-108.75	-71.25	-90	-146.25	-172.5	-176.25	-157.5
1654	-90	-105	-75	-93.75	-146.25	-176.25	-180	-157.5
1655	-86.25	-97.5	-71.25	-93.75	-142.5	-172.5	-180	-161.25
1656	-82.5	-93.75	-75	-93.75	-146.25	-172.5	-180	-157.5
1657	-82.5	-82.5	-75	-93.75	-142.5	-172.5	-176.25	-157.5
1658	-82.5	-75	-75	-93.75	-146.25	-168.75	-172.5	-153.75
1659	-82.5	-78.75	-75	-90	-142.5	-161.25	-172.5	-150
1660	-82.5	-78.75	-67.5	-90	-135	-157.5	-161.25	-146.25
1661	-86.25	-86.25	-67.5	-90	-135	-150	-157.5	-142.5
1662	-86.25	-90	-63.75	-90	-131.25	-146.25	-153.75	-138.75
1663	-86.25	-93.75	-63.75	-90	-127.5	-142.5	-150	-135
1664	-86.25	-105	-63.75	-90	-127.5	-142.5	-142.5	-135
1665	-86.25	-116.25	-60	-86.25	-127.5	-138.75	-142.5	-127.5
1666	-82.5	-123.75	-60	-82.5	-123.75	-138.75	-142.5	-127.5
1667	-86.25	-138.75	-60	-82.5	-120	-135	-138.75	-123.75
1668	-82.5	-153.75	-56.25	-78.75	-123.75	-135	-138.75	-123.75
1669	-82.5	-161.25	-56.25	-78.75	-120	-135	-142.5	-120
1670	-82.5	-172.5	-52.5	-78.75	-120	-135	-142.5	-120
1671	-82.5	-176.25	-56.25	-78.75	-120	-135	-138.75	-120
1672	-82.5	-176.25	-48.75	-82.5	-123.75	-135	-142.5	-120
1673	-82.5	-180	-52.5	-78.75	-123.75	-135	-142.5	-116.25
1674	-86.25	-180	-48.75	-82.5	-127.5	-135	-138.75	-120
1675	-90	-180	-48.75	-86.25	-127.5	-138.75	-142.5	-120
1676	-90	-180	-48.75	-86.25	-127.5	-138.75	-142.5	-120
1677	-93.75	-180	-52.5	-90	-131.25	-142.5	-146.25	-120
1678	-93.75	-176.25	-52.5	-90	-131.25	-146.25	-146.25	-123.75
1679	-93.75	-176.25	-56.25	-90	-138.75	-146.25	-146.25	-123.75
1680	-93.75	-172.5	-56.25	-90	-138.75	-150	-150	-127.5
1681	-97.5	-165	-60	-93.75	-142.5	-153.75	-153.75	-131.25
1682	-101.25	-157.5	-63.75	-97.5	-146.25	-157.5	-157.5	-138.75
1683	-101.25	-146.25	-67.5	-105	-150	-161.25	-165	-142.5
1684	-101.25	-135	-67.5	-105	-153.75	-165	-172.5	-146.25
1685	-101.25	-123.75	-71.25	-112.5	-157.5	-168.75	-172.5	-153.75
1686	-101.25	-112.5	-75	-120	-161.25	-168.75	-180	-157.5
1687	-105	-105	-78.75	-123.75	-161.25	-176.25	-183.75	-161.25
1688	-101.25	-105	-82.5	-131.25	-168.75	-180	-183.75	-165
1689	-105	-101.25	-86.25	-135	-176.25	-183.75	-187.5	-165
1690	-105	-101.25	-90	-135	-180	-191.25	-187.5	-168.75
1691	-105	-108.75	-86.25	-135	-183.75	-187.5	-187.5	-172.5
1692	-105	-120	-93.75	-131.25	-180	-191.25	-191.25	-168.75
1693	-105	-127.5	-86.25	-131.25	-183.75	-191.25	-187.5	-168.75
1694	-105	-138.75	-82.5	-131.25	-180	-191.25	-187.5	-165
1695	-101.25	-153.75	-82.5	-127.5	-176.25	-187.5	-187.5	-165
1696	-105	-168.75	-75	-123.75	-172.5	-183.75	-183.75	-161.25
1697	-105	-176.25	-67.5	-123.75	-168.75	-180	-187.5	-161.25
1698	-105	-183.75	-63.75	-120	-165	-176.25	-180	-153.75
1699	-105	-191.25	-60	-120	-161.25	-176.25	-180	-153.75
1700	-105	-191.25	-60	-120	-161.25	-172.5	-176.25	-150
1701	-108.75	-195	-60	-123.75	-165	-172.5	-172.5	-150
1702	-105	-187.5	-67.5	-120	-165	-180	-172.5	-150
1703	-105	-183.75	-67.5	-127.5	-168.75	-180	-172.5	-150
1704	-105	-180	-71.25	-131.25	-176.25	-183.75	-180	-153.75
1705	-101.25	-180	-75	-131.25	-180	-187.5	-180	-157.5
1706	-101.25	-176.25	-75	-131.25	-183.75	-187.5	-180	-157.5
1707	-105	-180	-75	-135	-183.75	-187.5	-183.75	-157.5
1708	-101.25	-176.25	-75	-135	-183.75	-183.75	-183.75	-161.25
1709	-105	-180	-71.25	-135	-180	-187.5	-183.75	-161.25
1710	-108.75	-176.25	-67.5	-131.25	-180	-180	-180	-161.25
1711	-112.5	-180	-63.75	-127.5	-176.25	-180	-180	-153.75
1712	-112.5	-180	-60	-123.75	-168.75	-176.25	-176.25	-157.5
1713	-116.25	-176.25	-52.5	-120	-168.75	-172.5	-176.25	-153.75
1714	-123.75	-176.25	-45	-116.25	-165	-168.75	-172.5	-150
1715	-123.75	-176.25	-41.25	-112.5	-157.5	-168.75	-168.75	-146.25
1716	-123.75	-165	-30	-108.75	-157.5	-168.75	-168.75	-150
1717	-127.5	-157.5	-26.25	-105	-157.5	-165	-165	-150
1718	-123.75	-138.75	-18.75	-105	-153.75	-168.75	-168.75	-150
1719	-123.75	-120	-22.5	-101.25	-161.25	-168.75	-172.5	-150
1720	-120	-101.25	-18.75	-105	-165	-172.5	-172.5	-157.5
1721	-120	-82.5	-22.5	-108.75	-161.25	-176.25	-172.5	-161.25
1722	-112.5	-63.75	-18.75	-105	-165	-180	-180	-165
1723	-108.75	-56.25	-18.75	-105	-168.75	-180	-180	-168.75
1724	-101.25	-52.5	-22.5	-108.75	-165	-183.75	-183.75	-165
1725	-97.5	-52.5	-15	-101.25	-165	-180	-183.75	-168.75
1726	-93.75	-56.25	-15	-101.25	-165	-180	-180	-161.25
1727	-93.75	-60	-7.5	-97.5	-157.5	-176.25	-180	-161.25
1728	-93.75	-60	-3.75	-97.5	-153.75	-176.25	-172.5	-153.75
1729	-93.75	-60	-3.75	-90	-150	-168.75	-168.75	-150
1730	-93.75	-63.75	0	-90	-146.25	-165	-161.25	-142.5
1731	-97.5	-63.75	-3.75	-86.25	-138.75	-157.5	-153.75	-135
1732	-93.75	-67.5	-3.75	-82.5	-135	-150	-142.5	-127.5
1733	-90	-78.75	-3.75	-78.75	-131.25	-142.5	-135	-123.75
1734	-90	-86.25	-11.25	-78.75	-131.25	-138.75	-131.25	-116.25
1735	-82.5	-93.75	-22.5	-82.5	-131.25	-135	-127.5	-112.5
1736	-78.75	-105	-33.75	-82.5	-135	-135	-131.25	-112.5
1737	-75	-108.75	-45	-90	-138.75	-142.5	-131.25	-116.25
1738	-71.25	-112.5	-60	-97.5	-142.5	-146.25	-138.75	-120
1739	-71.25	-116.25	-75	-105	-150	-153.75	-146.25	-123.75
1740	-67.5	-116.25	-90	-120	-157.5	-161.25	-153.75	-127.5
1741	-71.25	-112.5	-97.5	-127.5	-168.75	-168.75	-161.25	-135
1742	-67.5	-116.25	-105	-135	-176.25	-172.5	-165	-138.75
1743	-67.5	-123.75	-105	-138.75	-176.25	-176.25	-165	-142.5
1744	-71.25	-135	-101.25	-135	-180	-176.25	-168.75	-146.25
1745	-71.25	-146.25	-97.5	-135	-176.25	-176.25	-165	-146.25
1746	-75	-157.5	-93.75	-135	-180	-176.25	-165	-146.25
1747	-78.75	-168.75	-86.25	-135	-176.25	-176.25	-168.75	-146.25
1748	-82.5	-176.25	-86.25	-135	-176.25	-180	-168.75	-146.25
1749	-86.25	-183.75	-78.75	-131.25	-176.25	-180	-176.25	-150
1750	-90	-183.75	-82.5	-135	-176.25	-183.75	-180	-153.75
1751	-93.75	-180	-78.75	-138.75	-183.75	-183.75	-187.5	-161.25
1752	-97.5	-172.5	-82.5	-138.75	-187.5	-191.25	-195	-168.75
1753	-101.25	-165	-86.25	-150	-198.75	-198.75	-202.5	-176.25
1754	-105	-150	-90	-161.25	-206.25	-210	-210	-183.75
1755	-112.5	-131.25	-97.5	-172.5	-217.5	-225	-225	-195
1756	-116.25	-112.5	-108.75	-187.5	-232.5	-236.25	-236.25	-202.5
1757	-127.5	-105	-116.25	-195	-243.75	-247.5	-243.75	-213.75
1758	-131.25	-105	-120	-202.5	-251.25	-255	-243.75	-221.25
1759	-138.75	-116.25	-123.75	-206.25	-255	-258.75	-247.5	-225
1760	-146.25	-138.75	-120	-202.5	-251.25	-255	-243.75	-221.25
1761	-150	-176.25	-116.25	-191.25	-240	-247.5	-236.25	-213.75
1762	-153.75	-213.75	-108.75	-183.75	-232.5	-236.25	-228.75	-202.5
1763	-153.75	-251.25	-97.5	-172.5	-225	-228.75	-225	-191.25
1764	-157.5	-277.5	-86.25	-165	-217.5	-221.25	-213.75	-183.75
1765	-161.25	-296.25	-78.75	-165	-213.75	-213.75	-213.75	-183.75
1766	-161.25	-300	-78.75	-161.25	-210	-213.75	-206.25	-180
1767	-165	-296.25	-75	-165	-213.75	-213.75	-210	-183.75
1768	-168.75	-288.75	-78.75	-165	-217.5	-217.5	-210	-187.5
1769	-168.75	-277.5	-78.75	-168.75	-217.5	-221.25	-213.75	-187.5
1770	-165	-258.75	-86.25	-172.5	-221.25	-225	-217.5	-195
1771	-165	-240	-90	-180	-225	-232.5	-221.25	-198.75
1772	-165	-225	-97.5	-183.75	-232.5	-236.25	-228.75	-206.25
1773	-161.25	-217.5	-105	-187.5	-240	-243.75	-232.5	-210
1774	-157.5	-206.25	-108.75	-191.25	-243.75	-247.5	-240	-213.75
1775	-157.5	-202.5	-112.5	-191.25	-247.5	-247.5	-243.75	-217.5
1776	-153.75	-206.25	-116.25	-195	-243.75	-247.5	-240	-213.75
1777	-153.75	-210	-112.5	-195	-247.5	-247.5	-243.75	-213.75
1778	-153.75	-213.75	-108.75	-191.25	-243.75	-247.5	-240	-210
1779	-150	-217.5	-105	-191.25	-243.75	-243.75	-236.25	-210
1780	-150	-221.25	-101.25	-183.75	-240	-243.75	-236.25	-210
1781	-150	-221.25	-93.75	-180	-236.25	-247.5	-236.25	-213.75
1782	-146.25	-225	-86.25	-168.75	-240	-243.75	-240	-213.75
1783	-142.5	-225	-75	-157.5	-232.5	-247.5	-243.75	-221.25
1784	-146.25	-228.75	-56.25	-138.75	-228.75	-255	-255	-232.5
1785	-138.75	-232.5	-33.75	-108.75	-225	-258.75	-266.25	-243.75
1786	-131.25	-236.25	0	-78.75	-213.75	-262.5	-277.5	-258.75
1787	-123.75	-240	30	-33.75	-202.5	-270	-288.75	-270
1788	-116.25	-236.25	75	11.25	-180	-266.25	-296.25	-281.25
1789	-105	-225	120	71.25	-150	-255	-292.5	-281.25
1790	-90	-210	165	135	-116.25	-240	-281.25	-270
1791	-63.75	-187.5	213.75	206.25	-63.75	-206.25	-258.75	-251.25
1792	-41.25	-153.75	255	277.5	-3.75	-165	-221.25	-217.5
1793	-7.5	-108.75	288.75	348.75	60	-105	-168.75	-172.5
1794	26.25	-52.5	315	416.25	135	-33.75	-101.25	-116.25
1795	67.5	7.5	326.25	476.25	210	45	-15	-41.25
1796	112.5	78.75	330	525	288.75	138.75	75	41.25
1797	161.25	168.75	315	562.5	363.75	243.75	180	135
1798	210	266.25	288.75	581.25	442.5	352.5	292.5	240
1799	255	375	247.5	581.25	513.75	468.75	412.5	352.5
1800	303.75	495	191.25	558.75	585	585	543.75	476.25
1801	345	618.75	120	521.25	648.75	705	678.75	607.5
1802	386.25	742.5	33.75	461.25	705	828.75	817.5	742.5
1803	416.25	862.5	-63.75	382.5	761.25	952.5	960	877.5
1804	438.75	971.25	-168.75	288.75	810	1068.75	1095	1005
1805	446.25	1050	-277.5	183.75	851.25	1185	1222.5	1117.5
1806	442.5	1110	-375	71.25	877.5	1278.75	1331.25	1211.25
1807	420	1132.5	-472.5	-41.25	888.75	1350	1413.75	1278.75
1808	382.5	1121.25	-551.25	-157.5	881.25	1398.75	1458.75	1312.5
1809	330	1080	-622.5	-273.75	847.5	1398.75	1458.75	1301.25
1810	270	1016.25	-675	-390	787.5	1353.75	1413.75	1252.5
1811	191.25	926.25	-712.5	-498.75	693.75	1260	1320	1166.25
1812	112.5	817.5	-738.75	-607.5	570	1121.25	1177.5	1042.5
1813	30	693.75	-750	-701.25	420	941.25	1005	888.75
1814	-48.75	566.25	-757.5	-783.75	258.75	738.75	806.25	716.25
1815	-116.25	438.75	-753.75	-847.5	97.5	528.75	600	543.75
1816	-180	318.75	-738.75	-892.5	-45	330	408.75	378.75
1817	-228.75	210	-723.75	-907.5	-161.25	161.25	240	232.5
1818	-262.5	112.5	-693.75	-896.25	-251.25	26.25	105	112.5
1819	-277.5	33.75	-663.75	-866.25	-307.5	-63.75	3.75	26.25
1820	-285	-30	-622.5	-810	-330	-123.75	-56.25	-33.75
1821	-281.25	-78.75	-581.25	-750	-330	-153.75	-93.75	-71.25
1822	-273.75	-116.25	-532.5	-675	-315	-161.25	-116.25	-90
1823	-262.5	-138.75	-483.75	-600	-296.25	-157.5	-120	-101.25
1824	-247.5	-150	-438.75	-521.25	-270	-153.75	-123.75	-101.25
1825	-232.5	-153.75	-393.75	-450	-247.5	-150	-120	-105
1826	-213.75	-146.25	-352.5	-386.25	-225	-150	-120	-105
1827	-195	-142.5	-315	-326.25	-206.25	-146.25	-123.75	-108.75
1828	-176.25	-131.25	-281.25	-277.5	-187.5	-142.5	-123.75	-112.5
1829	-157.5	-120	-251.25	-236.25	-168.75	-138.75	-120	-116.25
1830	-146.25	-116.25	-225	-206.25	-153.75	-138.75	-123.75	-116.25
1831	-131.25	-112.5	-198.75	-180	-138.75	-131.25	-123.75	-120
1832	-120	-112.5	-176.25	-157.5	-127.5	-123.75	-123.75	-120
1833	-120	-120	-150	-142.5	-120	-120	-123.75	-120
1834	-123.75	-127.5	-131.25	-131.25	-112.5	-120	-123.75	-123.75
1835	-123.75	-146.25	-108.75	-116.25	-112.5	-116.25	-123.75	-123.75
1836	-127.5	-161.25	-93.75	-101.25	-112.5	-120	-123.75	-120
1837	-135	-183.75	-78.75	-90	-116.25	-127.5	-127.5	-127.5
1838	-138.75	-206.25	-67.5	-82.5	-112.5	-131.25	-127.5	-131.25
1839	-135	-221.25	-63.75	-67.5	-112.5	-131.25	-131.25	-127.5
1840	-135	-240	-56.25	-60	-112.5	-131.25	-131.25	-131.25
1841	-135	-243.75	-60	-56.25	-112.5	-138.75	-135	-135
1842	-131.25	-243.75	-56.25	-56.25	-112.5	-138.75	-135	-131.25
1843	-127.5	-232.5	-60	-60	-112.5	-138.75	-135	-135
1844	-120	-217.5	-60	-60	-112.5	-138.75	-138.75	-138.75
1845	-112.5	-198.75	-60	-63.75	-112.5	-142.5	-142.5	-135
1846	-112.5	-172.5	-60	-63.75	-116.25	-142.5	-146.25	-142.5
1847	-108.75	-153.75	-63.75	-67.5	-120	-146.25	-150	-142.5
1848	-105	-142.5	-60	-67.5	-127.5	-150	-153.75	-146.25
1849	-105	-135	-60	-67.5	-135	-153.75	-157.5	-150
1850	-108.75	-135	-63.75	-67.5	-142.5	-157.5	-157.5	-157.5
1851	-105	-142.5	-60	-63.75	-142.5	-161.25	-161.25	-161.25
1852	-105	-157.5	-63.75	-63.75	-142.5	-165	-161.25	-161.25
1853	-105	-172.5	-60	-60	-138.75	-161.25	-161.25	-157.5
1854	-101.25	-187.5	-56.25	-52.5	-131.25	-161.25	-157.5	-153.75
1855	-97.5	-202.5	-48.75	-48.75	-123.75	-153.75	-153.75	-150
1856	-93.75	-210	-45	-41.25	-116.25	-146.25	-146.25	-142.5
1857	-90	-210	-45	-37.5	-108.75	-138.75	-138.75	-135
1858	-86.25	-210	-37.5	-30	-105	-131.25	-135	-131.25
1859	-86.25	-198.75	-37.5	-30	-105	-127.5	-131.25	-127.5
1860	-82.5	-187.5	-37.5	-22.5	-105	-127.5	-131.25	-127.5
1861	-82.5	-176.25	-37.5	-26.25	-101.25	-127.5	-131.25	-127.5
1862	-78.75	-165	-37.5	-22.5	-108.75	-127.5	-131.25	-127.5
1863	-78.75	-157.5	-41.25	-22.5	-105	-131.25	-131.25	-131.25
1864	-75	-153.75	-45	-22.5	-108.75	-135	-131.25	-131.25
1865	-71.25	-150	-45	-26.25	-105	-135	-135	-131.25
1866	-67.5	-146.25	-45	-22.5	-108.75	-131.25	-131.25	-131.25
1867	-60	-142.5	-45	-22.5	-105	-131.25	-131.25	-131.25
1868	-56.25	-138.75	-45	-22.5	-105	-127.5	-131.25	-127.5
1869	-48.75	-131.25	-45	-18.75	-97.5	-127.5	-127.5	-127.5
1870	-41.25	-127.5	-45	-15	-93.75	-120	-123.75	-120
1871	-37.5	-127.5	-45	-11.25	-90	-116.25	-120	-116.25
1872	-33.75	-123.75	-41.25	-3.75	-82.5	-105	-112.5	-112.5
1873	-33.75	-123.75	-33.75	0	-82.5	-105	-105	-105
1874	-33.75	-127.5	-33.75	3.75	-78.75	-97.5	-101.25	-101.25
1875	-30	-127.5	-33.75	7.5	-78.75	-97.5	-101.25	-101.25
1876	-33.75	-123.75	-37.5	3.75	-82.5	-97.5	-101.25	-97.5
1877	-33.75	-123.75	-37.5	7.5	-78.75	-97.5	-105	-101.25
1878	-37.5	-116.25	-41.25	3.75	-82.5	-101.25	-101.25	-105
1879	-33.75	-108.75	-48.75	3.75	-82.5	-101.25	-105	-105
1880	-33.75	-101.25	-52.5	7.5	-78.75	-101.25	-105	-108.75
1881	-30	-97.5	-52.5	7.5	-75	-97.5	-105	-108.75
1882	-26.25	-101.25	-52.5	15	-67.5	-90	-97.5	-105
1883	-22.5	-105	-48.75	18.75	-63.75	-82.5	-90	-93.75
1884	-15	-105	-45	30	-56.25	-71.25	-82.5	-90
1885	-7.5	-112.5	-37.5	41.25	-41.25	-63.75	-71.25	-78.75
1886	0	-116.25	-30	48.75	-33.75	-52.5	-60	-71.25
1887	7.5	-116.25	-26.25	60	-26.25	-45	-52.5	-60
1888	15	-112.5	-26.25	60	-22.5	-41.25	-52.5	-56.25
1889	22.5	-105	-26.25	63.75	-18.75	-41.25	-48.75	-60
1890	26.25	-86.25	-30	63.75	-18.75	-45	-52.5	-56.25
1891	33.75	-71.25	-33.75	60	-22.5	-48.75	-56.25	-60
1892	37.5	-52.5	-41.25	56.25	-30	-52.5	-63.75	-63.75
1893	41.25	-37.5	-45	52.5	-30	-60	-63.75	-67.5
1894	45	-22.5	-52.5	52.5	-30	-60	-67.5	-71.25
1895	45	-15	-56.25	52.5	-33.75	-60	-67.5	-71.25
1896	45	-15	-60	52.5	-33.75	-60	-67.5	-71.25
1897	48.75	-18.75	-60	52.5	-33.75	-60	-67.5	-67.5
1898	48.75	-22.5	-60	52.5	-33.75	-60	-63.75	-67.5
1899	48.75	-30	-56.25	56.25	-26.25	-52.5	-60	-63.75
1900	52.5	-37.5	-56.25	60	-22.5	-48.75	-52.5	-56.25
1901	56.25	-45	-56.25	63.75	-18.75	-45	-48.75	-52.5
1902	56.25	-56.25	-52.5	71.25	-15	-37.5	-41.25	-45
1903	63.75	-71.25	-45	78.75	-7.5	-26.25	-30	-37.5
1904	67.5	-78.75	-41.25	86.25	0	-18.75	-22.5	-30
1905	67.5	-75	-41.25	86.25	0	-15	-15	-22.5
1906	75	-71.25	-37.5	90	3.75	-15	-11.25	-22.5
1907	82.5	-60	-37.5	90	0	-15	-15	-22.5
1908	86.25	-41.25	-45	86.25	-3.75	-22.5	-18.75	-26.25
1909	93.75	-22.5	-52.5	82.5	-11.25	-26.25	-22.5	-30
1910	97.5	-3.75	-56.25	75	-15	-30	-26.25	-33.75
1911	101.25	11.25	-60	71.25	-22.5	-37.5	-33.75	-37.5
1912	105	18.75	-63.75	67.5	-26.25	-41.25	-37.5	-33.75
1913	108.75	22.5	-63.75	67.5	-26.25	-41.25	-33.75	-33.75
1914	112.5	15	-63.75	67.5	-26.25	-41.25	-33.75	-33.75
1915	116.25	7.5	-60	71.25	-26.25	-37.5	-33.75	-30
1916	116.25	0	-60	67.5	-26.25	-37.5	-33.75	-26.25
1917	116.25	0	-52.5	71.25	-22.5	-37.5	-30	-22.5
1918	116.25	-11.25	-52.5	75	-26.25	-33.75	-26.25	-22.5
1919	120	-11.25	-52.5	75	-26.25	-37.5	-26.25	-18.75
1920	116.25	-15	-48.75	75	-26.25	-37.5	-22.5	-15
1921	116.25	-18.75	-45	75	-30	-37.5	-22.5	-15
1922	116.25	-22.5	-41.25	75	-30	-37.5	-22.5	-15
1923	116.25	-30	-37.5	75	-33.75	-33.75	-18.75	-11.25
1924	112.5	-30	-37.5	78.75	-33.75	-37.5	-18.75	-11.25
1925	112.5	-33.75	-37.5	75	-37.5	-41.25	-22.5	-11.25
1926	112.5	-37.5	-37.5	75	-41.25	-41.25	-26.25	-7.5
1927	108.75	-33.75	-33.75	71.25	-45	-45	-26.25	-15
1928	112.5	-30	-37.5	67.5	-52.5	-48.75	-26.25	-15
1929	112.5	-26.25	-33.75	63.75	-56.25	-56.25	-33.75	-22.5
1930	108.75	-18.75	-33.75	56.25	-63.75	-60	-37.5	-30
1931	108.75	-3.75	-33.75	52.5	-71.25	-71.25	-45	-33.75
1932	108.75	7.5	-33.75	48.75	-75	-78.75	-56.25	-41.25
1933	105	15	-33.75	41.25	-86.25	-90	-63.75	-48.75
1934	101.25	18.75	-33.75	33.75	-86.25	-93.75	-71.25	-56.25
1935	101.25	15	-33.75	33.75	-93.75	-97.5	-75	-56.25
1936	93.75	7.5	-33.75	33.75	-93.75	-101.25	-78.75	-56.25
1937	86.25	-7.5	-26.25	33.75	-93.75	-101.25	-78.75	-56.25
1938	78.75	-26.25	-18.75	37.5	-93.75	-101.25	-78.75	-56.25
1939	71.25	-41.25	-11.25	45	-93.75	-93.75	-75	-56.25
1940	63.75	-52.5	-7.5	45	-90	-97.5	-75	-52.5
1941	56.25	-56.25	0	48.75	-90	-93.75	-75	-60
1942	56.25	-60	3.75	48.75	-90	-97.5	-75	-60
1943	48.75	-56.25	11.25	45	-90	-93.75	-75	-60
1944	45	-52.5	18.75	48.75	-90	-97.5	-78.75	-63.75
1945	41.25	-48.75	18.75	45	-93.75	-97.5	-78.75	-67.5
1946	33.75	-52.5	22.5	45	-93.75	-101.25	-86.25	-67.5
1947	30	-52.5	22.5	45	-93.75	-105	-86.25	-71.25
1948	22.5	-63.75	26.25	41.25	-97.5	-108.75	-90	-75
1949	15	-71.25	30	41.25	-97.5	-108.75	-93.75	-78.75
1950	3.75	-86.25	30	37.5	-97.5	-112.5	-97.5	-78.75
1951	0	-101.25	33.75	37.5	-97.5	-112.5	-97.5	-86.25
1952	-7.5	-116.25	37.5	33.75	-101.25	-116.25	-101.25	-90
1953	-18.75	-127.5	45	30	-105	-120	-105	-90
1954	-18.75	-135	45	30	-105	-120	-105	-90
1955	-22.5	-138.75	45	26.25	-105	-120	-105	-90
1956	-22.5	-131.25	48.75	30	-108.75	-123.75	-108.75	-93.75
1957	-26.25	-127.5	45	26.25	-112.5	-123.75	-112.5	-97.5
1958	-26.25	-120	45	18.75	-112.5	-127.5	-112.5	-97.5
1959	-30	-108.75	41.25	11.25	-120	-131.25	-120	-105
1960	-30	-90	33.75	7.5	-123.75	-142.5	-123.75	-112.5
1961	-30	-82.5	30	-3.75	-131.25	-150	-135	-120
1962	-37.5	-71.25	22.5	-11.25	-142.5	-157.5	-146.25	-131.25
1963	-41.25	-67.5	18.75	-22.5	-150	-165	-153.75	-138.75
1964	-45	-63.75	11.25	-26.25	-157.5	-168.75	-161.25	-142.5
1965	-48.75	-71.25	7.5	-33.75	-161.25	-172.5	-165	-146.25
1966	-52.5	-75	3.75	-37.5	-161.25	-176.25	-165	-150
1967	-56.25	-82.5	7.5	-37.5	-157.5	-172.5	-161.25	-146.25
1968	-60	-90	11.25	-33.75	-153.75	-168.75	-157.5	-146.25
1969	-60	-101.25	15	-30	-153.75	-165	-157.5	-138.75
1970	-63.75	-112.5	18.75	-30	-150	-161.25	-150	-138.75
1971	-67.5	-116.25	22.5	-30	-150	-157.5	-150	-135
1972	-71.25	-120	26.25	-30	-146.25	-157.5	-146.25	-135
1973	-75	-123.75	22.5	-33.75	-150	-153.75	-146.25	-135
1974	-82.5	-123.75	22.5	-33.75	-150	-157.5	-150	-135
1975	-86.25	-120	18.75	-41.25	-153.75	-157.5	-153.75	-138.75
1976	-90	-112.5	18.75	-48.75	-161.25	-161.25	-157.5	-150
1977	-93.75	-105	11.25	-52.5	-165	-165	-165	-157.5
1978	-90	-93.75	3.75	-60	-168.75	-168.75	-168.75	-161.25
1979	-93.75	-90	3.75	-67.5	-176.25	-176.25	-172.5	-168.75
1980	-90	-93.75	0	-67.5	-180	-180	-176.25	-168.75
1981	-86.25	-105	0	-67.5	-180	-176.25	-172.5	-172.5
1982	-82.5	-120	3.75	-63.75	-172.5	-176.25	-168.75	-165
1983	-78.75	-142.5	11.25	-60	-172.5	-172.5	-165	-153.75
1984	-78.75	-165	18.75	-56.25	-165	-165	-157.5	-142.5
1985	-78.75	-183.75	22.5	-48.75	-161.25	-157.5	-153.75	-135
1986	-75	-198.75	26.25	-45	-153.75	-153.75	-146.25	-127.5
1987	-75	-206.25	26.25	-41.25	-150	-146.25	-142.5	-120
1988	-75	-202.5	30	-41.25	-146.25	-142.5	-138.75	-116.25
1989	-78.75	-198.75	30	-37.5	-146.25	-142.5	-135	-120
1990	-82.5	-187.5	30	-41.25	-146.25	-142.5	-138.75	-120
1991	-82.5	-180	26.25	-41.25	-146.25	-142.5	-138.75	-123.75
1992	-86.25	-161.25	22.5	-45	-150	-146.25	-142.5	-131.25
1993	-86.25	-142.5	18.75	-48.75	-153.75	-150	-146.25	-138.75
1994	-90	-127.5	15	-56.25	-157.5	-153.75	-150	-142.5
1995	-90	-112.5	7.5	-56.25	-161.25	-157.5	-153.75	-146.25
1996	-90	-101.25	3.75	-60	-165	-161.25	-161.25	-150
1997	-93.75	-93.75	0	-63.75	-165	-161.25	-165	-153.75
1998	-93.75	-97.5	0	-63.75	-168.75	-165	-168.75	-150
1999	-93.75	-101.25	0	-67.5	-168.75	-161.25	-165	-153.75
2000	-93.75	-108.75	0	-63.75	-168.75	-165	-161.25	-150
2001	-93.75	-116.25	0	-60	-161.25	-157.5	-157.5	-150
2002	-90	-123.75	7.5	-56.25	-157.5	-153.75	-153.75	-142.5
2003	-93.75	-135	11.25	-52.5	-153.75	-150	-146.25	-142.5
2004	-90	-138.75	11.25	-48.75	-150	-150	-146.25	-135
2005	-90	-138.75	15	-41.25	-146.25	-146.25	-138.75	-135
2006	-86.25	-135	18.75	-41.25	-146.25	-142.5	-135	-135
2007	-86.25	-131.25	18.75	-41.25	-142.5	-138.75	-135	-131.25
2008	-86.25	-127.5	15	-41.25	-146.25	-142.5	-131.25	-127.5
2009	-82.5	-123.75	15	-41.25	-142.5	-138.75	-135	-131.25
2010	-82.5	-116.25	15	-41.25	-146.25	-142.5	-135	-131.25
2011	-78.75	-108.75	7.5	-45	-142.5	-142.5	-135	-131.25
2012	-75	-105	7.5	-45	-142.5	-146.25	-138.75	-131.25
2013	-71.25	-97.5	3.75	-48.75	-146.25	-146.25	-138.75	-131.25
2014	-67.5	-90	0	-48.75	-146.25	-146.25	-138.75	-135
2015	-63.75	-82.5	0	-48.75	-150	-150	-142.5	-135
2016	-63.75	-71.25	-3.75	-56.25	-150	-153.75	-146.25	-138.75
2017	-60	-63.75	-3.75	-60	-153.75	-153.75	-150	-138.75
2018	-63.75	-56.25	-3.75	-60	-157.5	-157.5	-150	-142.5
2019	-63.75	-56.25	-7.5	-63.75	-153.75	-153.75	-146.25	-138.75
2020	-67.5	-60	-3.75	-56.25	-153.75	-153.75	-150	-138.75
2021	-67.5	-71.25	0	-52.5	-146.25	-146.25	-142.5	-135
2022	-67.5	-90	3.75	-45	-138.75	-138.75	-135	-127.5
2023	-67.5	-112.5	15	-41.25	-131.25	-131.25	-123.75	-120
2024	-63.75	-135	18.75	-30	-123.75	-123.75	-112.5	-108.75
2025	-63.75	-153.75	26.25	-22.5	-120	-112.5	-108.75	-101.25
2026	-60	-168.75	30	-18.75	-112.5	-105	-101.25	-97.5
2027	-60	-176.25	30	-15	-112.5	-101.25	-93.75	-93.75
2028	-60	-176.25	33.75	-15	-112.5	-105	-93.75	-93.75
2029	-56.25	-172.5	30	-18.75	-112.5	-105	-101.25	-93.75
2030	-56.25	-165	30	-22.5	-116.25	-112.5	-101.25	-97.5
2031	-56.25	-153.75	26.25	-26.25	-120	-116.25	-105	-101.25
2032	-56.25	-138.75	18.75	-30	-120	-120	-112.5	-105
2033	-60	-123.75	15	-37.5	-127.5	-131.25	-116.25	-112.5
2034	-63.75	-112.5	11.25	-48.75	-135	-138.75	-123.75	-120
2035	-67.5	-97.5	3.75	-56.25	-146.25	-142.5	-131.25	-123.75
2036	-75	-86.25	0	-60	-150	-146.25	-135	-127.5
2037	-75	-75	-3.75	-63.75	-153.75	-146.25	-138.75	-131.25
2038	-75	-71.25	-7.5	-67.5	-157.5	-150	-142.5	-135
2039	-78.75	-67.5	-11.25	-67.5	-157.5	-150	-142.5	-138.75
2040	-82.5	-67.5	-11.25	-67.5	-157.5	-150	-142.5	-138.75
2041	-78.75	-67.5	-7.5	-67.5	-157.5	-150	-142.5	-135
2042	-75	-71.25	-11.25	-63.75	-157.5	-150	-138.75	-138.75
2043	-71.25	-71.25	-7.5	-67.5	-157.5	-153.75	-142.5	-135
2044	-67.5	-75	-7.5	-63.75	-153.75	-153.75	-138.75	-135
2045	-67.5	-78.75	-7.5	-67.5	-153.75	-153.75	-138.75	-135
2046	-67.5	-82.5	-7.5	-63.75	-153.75	-157.5	-138.75	-135
2047	-67.5	-90	-7.5	-67.5	-153.75	-157.5	-138.75	-131.25
2048	-67.5	-93.75	-7.5	-71.25	-157.5	-157.5	-142.5	-131.25
2049	-63.75	-101.25	-7.5	-67.5	-157.5	-153.75	-138.75	-131.25
2050	-67.5	-112.5	-3.75	-71.25	-157.5	-150	-138.75	-127.5
2051	-67.5	-120	-7.5	-71.25	-157.5	-153.75	-135	-123.75
2052	-63.75	-127.5	-3.75	-67.5	-153.75	-146.25	-131.25	-120
2053	-63.75	-135	0	-63.75	-150	-146.25	-127.5	-120
2054	-67.5	-138.75	0	-63.75	-150	-146.25	-127.5	-116.25
2055	-63.75	-138.75	0	-67.5	-153.75	-142.5	-123.75	-112.5
2056	-63.75	-138.75	0	-63.75	-150	-142.5	-123.75	-116.25
2057	-63.75	-127.5	0	-63.75	-150	-146.25	-120	-116.25
2058	-60	-120	0	-67.5	-153.75	-150	-127.5	-120
2059	-60	-108.75	-3.75	-71.25	-157.5	-153.75	-127.5	-120
2060	-60	-97.5	-7.5	-75	-161.25	-153.75	-131.25	-123.75
2061	-56.25	-86.25	-7.5	-82.5	-165	-161.25	-138.75	-127.5
2062	-60	-78.75	-15	-86.25	-168.75	-165	-138.75	-131.25
2063	-63.75	-75	-15	-90	-172.5	-165	-146.25	-135
2064	-67.5	-75	-18.75	-93.75	-180	-168.75	-146.25	-138.75
2065	-67.5	-75	-22.5	-93.75	-176.25	-172.5	-150	-142.5
2066	-71.25	-78.75	-22.5	-97.5	-183.75	-176.25	-150	-142.5
2067	-75	-78.75	-26.25	-101.25	-183.75	-176.25	-157.5	-146.25
2068	-75	-82.5	-26.25	-101.25	-187.5	-180	-157.5	-146.25
2069	-82.5	-86.25	-30	-101.25	-191.25	-183.75	-161.25	-150
2070	-78.75	-82.5	-26.25	-105	-187.5	-187.5	-161.25	-150
2071	-82.5	-86.25	-30	-105	-187.5	-187.5	-161.25	-146.25
2072	-78.75	-90	-26.25	-105	-187.5	-180	-157.5	-146.25
2073	-78.75	-97.5	-22.5	-101.25	-187.5	-180	-157.5	-146.25
2074	-75	-101.25	-22.5	-101.25	-183.75	-176.25	-157.5	-146.25
2075	-75	-108.75	-22.5	-101.25	-183.75	-176.25	-157.5	-146.25
2076	-75	-108.75	-18.75	-101.25	-187.5	-176.25	-153.75	-146.25
2077	-78.75	-112.5	-18.75	-105	-183.75	-176.25	-161.25	-142.5
2078	-78.75	-108.75	-15	-97.5	-183.75	-176.25	-157.5	-150
2079	-78.75	-108.75	-15	-97.5	-180	-172.5	-153.75	-142.5
2080	-86.25	-108.75	-7.5	-93.75	-180	-168.75	-153.75	-142.5
2081	-86.25	-112.5	-7.5	-86.25	-172.5	-168.75	-146.25	-135
2082	-90	-116.25	0	-82.5	-172.5	-161.25	-142.5	-131.25
2083	-90	-120	7.5	-78.75	-165	-157.5	-135	-123.75
2084	-90	-120	11.25	-71.25	-157.5	-150	-127.5	-116.25
2085	-90	-123.75	18.75	-63.75	-150	-146.25	-123.75	-116.25
2086	-78.75	-120	26.25	-60	-146.25	-138.75	-120	-108.75
2087	-75	-112.5	37.5	-56.25	-138.75	-135	-116.25	-105
2088	-67.5	-105	41.25	-52.5	-138.75	-135	-112.5	-101.25
2089	-60	-93.75	45	-48.75	-135	-131.25	-116.25	-101.25
2090	-52.5	-78.75	48.75	-48.75	-135	-135	-116.25	-105
2091	-48.75	-63.75	48.75	-48.75	-138.75	-135	-120	-105
2092	-48.75	-52.5	52.5	-52.5	-138.75	-142.5	-123.75	-101.25
2093	-48.75	-37.5	52.5	-52.5	-138.75	-142.5	-123.75	-105
2094	-45	-30	56.25	-48.75	-142.5	-146.25	-123.75	-105
2095	-48.75	-22.5	52.5	-52.5	-142.5	-146.25	-123.75	-108.75
2096	-48.75	-15	56.25	-52.5	-142.5	-146.25	-120	-105
2097	-52.5	-15	52.5	-52.5	-142.5	-146.25	-123.75	-108.75
2098	-52.5	-11.25	52.5	-52.5	-142.5	-146.25	-123.75	-112.5
2099	-52.5	-3.75	48.75	-56.25	-146.25	-146.25	-123.75	-112.5
2100	-48.75	-7.5	48.75	-56.25	-142.5	-150	-127.5	-116.25
2101	-48.75	0	41.25	-56.25	-150	-146.25	-123.75	-112.5
2102	-48.75	0	33.75	-56.25	-146.25	-146.25	-123.75	-108.75
2103	-45	0	26.25	-60	-146.25	-142.5	-123.75	-108.75
2104	-45	3.75	18.75	-67.5	-146.25	-146.25	-123.75	-105
2105	-45	11.25	7.5	-71.25	-153.75	-146.25	-120	-105
2106	-41.25	15	-3.75	-78.75	-150	-146.25	-123.75	-105
2107	-45	11.25	-15	-82.5	-153.75	-146.25	-120	-105
2108	-41.25	7.5	-26.25	-86.25	-157.5	-150	-123.75	-105
2109	-37.5	0	-33.75	-90	-157.5	-150	-123.75	-105
2110	-37.5	-3.75	-41.25	-93.75	-157.5	-150	-123.75	-105
2111	-33.75	-18.75	-45	-90	-157.5	-150	-123.75	-101.25
2112	-33.75	-30	-45	-90	-157.5	-150	-120	-101.25
2113	-33.75	-48.75	-41.25	-90	-161.25	-142.5	-116.25	-93.75
2114	-37.5	-63.75	-37.5	-90	-157.5	-142.5	-116.25	-93.75
2115	-33.75	-82.5	-30	-86.25	-153.75	-138.75	-112.5	-93.75
2116	-37.5	-101.25	-26.25	-86.25	-150	-138.75	-108.75	-90
