samplenr	I	II	V1	V2	V3	V4	V5	V6	measurement
0	-22.5	-101.25	56.25	-11.25	-101.25	-101.25	-116.25	-75
1	-37.5	-97.5	48.75	-26.25	-112.5	-116.25	-135	-90
2	-48.75	-97.5	45	-30	-120	-127.5	-146.25	-97.5
3	-67.5	-82.5	60	-15	-97.5	-101.25	-123.75	-78.75
4	-120	-71.25	67.5	-7.5	-86.25	-86.25	-108.75	-71.25
5	-135	-45	63.75	-11.25	-86.25	-82.5	-108.75	-71.25
6	-97.5	-18.75	48.75	-18.75	-101.25	-93.75	-120	-78.75
7	-71.25	-18.75	41.25	-26.25	-108.75	-105	-131.25	-86.25
8	-30	-26.25	30	-37.5	-120	-123.75	-150	-101.25
9	26.25	-56.25	22.5	-48.75	-135	-146.25	-165	-108.75
10	26.25	-108.75	26.25	-48.75	-138.75	-150	-165	-105
11	-18.75	-138.75	26.25	-52.5	-146.25	-153.75	-168.75	-116.25
12	-30	-112.5	33.75	-45	-138.75	-142.5	-157.5	-108.75
13	-18.75	-82.5	37.5	-41.25	-131.25	-135	-146.25	-90
14	-52.5	-97.5	26.25	-52.5	-142.5	-138.75	-153.75	-97.5
15	-131.25	-135	18.75	-60	-146.25	-150	-165	-116.25
16	-195	-138.75	30	-52.5	-142.5	-138.75	-157.5	-112.5
17	-165	-67.5	33.75	-45	-131.25	-120	-146.25	-97.5
18	-78.75	0	45	-26.25	-108.75	-101.25	-123.75	-75
19	-11.25	18.75	60	-15	-97.5	-90	-116.25	-63.75
20	22.5	7.5	56.25	-22.5	-105	-97.5	-127.5	-71.25
21	52.5	-33.75	26.25	-52.5	-138.75	-135	-157.5	-93.75
22	52.5	-75	18.75	-60	-153.75	-153.75	-168.75	-105
23	7.5	-90	33.75	-52.5	-146.25	-142.5	-161.25	-97.5
24	-33.75	-116.25	30	-60	-150	-150	-165	-101.25
25	-45	-120	30	-60	-150	-146.25	-165	-101.25
26	-45	-120	37.5	-52.5	-142.5	-138.75	-157.5	-97.5
27	-71.25	-131.25	45	-48.75	-138.75	-131.25	-153.75	-93.75
28	-135	-123.75	52.5	-45	-135	-120	-146.25	-90
29	-172.5	-112.5	52.5	-48.75	-138.75	-120	-146.25	-90
30	-127.5	-78.75	48.75	-52.5	-138.75	-120	-146.25	-86.25
31	-78.75	-22.5	41.25	-52.5	-131.25	-116.25	-142.5	-78.75
32	-41.25	7.5	30	-56.25	-138.75	-127.5	-153.75	-86.25
33	-18.75	-60	7.5	-82.5	-172.5	-168.75	-191.25	-120
34	-7.5	-127.5	0	-101.25	-191.25	-187.5	-206.25	-142.5
35	3.75	-120	22.5	-78.75	-172.5	-165	-183.75	-120
36	3.75	-90	30	-71.25	-161.25	-153.75	-168.75	-105
37	-30	-86.25	15	-86.25	-176.25	-168.75	-183.75	-120
38	-67.5	-123.75	7.5	-93.75	-187.5	-176.25	-195	-123.75
39	-75	-123.75	41.25	-63.75	-153.75	-138.75	-161.25	-90
40	-86.25	-71.25	71.25	-37.5	-123.75	-108.75	-135	-71.25
41	-108.75	-52.5	67.5	-37.5	-123.75	-108.75	-138.75	-78.75
42	-93.75	-52.5	45	-56.25	-146.25	-131.25	-161.25	-97.5
43	-75	-33.75	18.75	-78.75	-165	-150	-176.25	-112.5
44	-52.5	-37.5	0	-97.5	-183.75	-165	-187.5	-120
45	-15	-63.75	-22.5	-120	-210	-191.25	-206.25	-135
46	-15	-82.5	-18.75	-120	-210	-195	-210	-135
47	-41.25	-101.25	3.75	-101.25	-195	-183.75	-198.75	-127.5
48	-45	-108.75	18.75	-90	-187.5	-172.5	-191.25	-123.75
49	-30	-101.25	33.75	-78.75	-176.25	-165	-183.75	-112.5
50	-15	-90	37.5	-71.25	-168.75	-157.5	-172.5	-101.25
51	-56.25	-86.25	52.5	-56.25	-153.75	-142.5	-157.5	-86.25
52	-108.75	-90	67.5	-48.75	-138.75	-123.75	-146.25	-78.75
53	-112.5	-86.25	63.75	-48.75	-138.75	-127.5	-150	-86.25
54	-101.25	-82.5	48.75	-60	-153.75	-138.75	-165	-101.25
55	-108.75	-82.5	33.75	-71.25	-165	-150	-176.25	-108.75
56	-75	-86.25	26.25	-82.5	-172.5	-153.75	-176.25	-105
57	7.5	-71.25	18.75	-90	-187.5	-172.5	-183.75	-112.5
58	26.25	-52.5	26.25	-82.5	-187.5	-176.25	-187.5	-116.25
59	-18.75	-60	33.75	-78.75	-183.75	-176.25	-191.25	-123.75
60	-48.75	-63.75	41.25	-82.5	-187.5	-180	-195	-131.25
61	-48.75	-48.75	48.75	-86.25	-191.25	-183.75	-198.75	-131.25
62	-67.5	-60	52.5	-78.75	-180	-176.25	-195	-131.25
63	-131.25	-67.5	71.25	-63.75	-168.75	-161.25	-180	-120
64	-172.5	-22.5	90	-52.5	-157.5	-146.25	-161.25	-105
65	-146.25	37.5	93.75	-45	-150	-135	-157.5	-97.5
66	-71.25	90	90	-41.25	-142.5	-127.5	-150	-93.75
67	-45	78.75	86.25	-41.25	-138.75	-123.75	-150	-90
68	-56.25	-7.5	71.25	-60	-157.5	-146.25	-172.5	-105
69	-33.75	-78.75	63.75	-67.5	-172.5	-165	-183.75	-116.25
70	-7.5	-86.25	78.75	-56.25	-161.25	-157.5	-172.5	-101.25
71	0	-75	120	-22.5	-131.25	-127.5	-138.75	-75
72	7.5	-75	146.25	3.75	-105	-101.25	-116.25	-56.25
73	-3.75	-75	150	3.75	-105	-101.25	-116.25	-60
74	-33.75	-63.75	135	-11.25	-116.25	-112.5	-123.75	-67.5
75	-75	-30	123.75	-18.75	-116.25	-105	-116.25	-60
76	-112.5	15	120	-11.25	-105	-90	-105	-48.75
77	-116.25	41.25	108.75	-11.25	-101.25	-86.25	-105	-45
78	-90	30	82.5	-26.25	-112.5	-93.75	-112.5	-52.5
79	-56.25	7.5	48.75	-41.25	-123.75	-108.75	-127.5	-60
80	-3.75	15	26.25	-52.5	-135	-116.25	-135	-67.5
81	45	3.75	3.75	-71.25	-153.75	-142.5	-153.75	-82.5
82	78.75	0	-15	-86.25	-172.5	-165	-172.5	-97.5
83	56.25	-3.75	-15	-90	-172.5	-161.25	-165	-93.75
84	3.75	-26.25	-15	-101.25	-183.75	-172.5	-176.25	-101.25
85	11.25	-7.5	-11.25	-101.25	-187.5	-176.25	-176.25	-105
86	22.5	37.5	-15	-105	-187.5	-172.5	-176.25	-108.75
87	-18.75	78.75	-15	-97.5	-176.25	-161.25	-165	-101.25
88	-97.5	56.25	-11.25	-97.5	-168.75	-150	-157.5	-101.25
89	-146.25	22.5	-11.25	-93.75	-168.75	-150	-161.25	-105
90	-127.5	7.5	-11.25	-101.25	-176.25	-157.5	-168.75	-108.75
91	-97.5	-37.5	11.25	-86.25	-165	-142.5	-157.5	-90
92	-33.75	-60	30	-67.5	-150	-135	-146.25	-78.75
93	60	-78.75	18.75	-78.75	-168.75	-157.5	-165	-93.75
94	67.5	-127.5	7.5	-93.75	-183.75	-176.25	-183.75	-108.75
95	11.25	-138.75	11.25	-93.75	-180	-176.25	-183.75	-112.5
96	-22.5	-112.5	7.5	-101.25	-191.25	-183.75	-187.5	-120
97	-45	-108.75	-7.5	-127.5	-213.75	-202.5	-206.25	-138.75
98	-82.5	-112.5	-15	-138.75	-221.25	-213.75	-217.5	-146.25
99	-138.75	-101.25	-3.75	-127.5	-210	-202.5	-210	-138.75
100	-168.75	-78.75	7.5	-116.25	-198.75	-187.5	-198.75	-131.25
101	-116.25	0	18.75	-108.75	-187.5	-172.5	-187.5	-123.75
102	-56.25	56.25	15	-105	-183.75	-172.5	-183.75	-120
103	-78.75	7.5	0	-123.75	-202.5	-187.5	-198.75	-131.25
104	-75	-63.75	-7.5	-135	-217.5	-198.75	-206.25	-135
105	-11.25	-138.75	-18.75	-150	-232.5	-217.5	-221.25	-146.25
106	11.25	-187.5	-18.75	-146.25	-232.5	-217.5	-213.75	-142.5
107	-30	-191.25	-7.5	-138.75	-221.25	-210	-206.25	-135
108	-56.25	-176.25	-3.75	-138.75	-221.25	-221.25	-221.25	-146.25
109	-52.5	-153.75	-7.5	-138.75	-225	-225	-225	-153.75
110	-52.5	-127.5	-11.25	-142.5	-228.75	-221.25	-217.5	-150
111	-93.75	-120	-3.75	-135	-217.5	-206.25	-202.5	-138.75
112	-157.5	-131.25	3.75	-135	-213.75	-202.5	-202.5	-135
113	-172.5	-97.5	3.75	-131.25	-210	-198.75	-202.5	-138.75
114	-150	-71.25	-15	-142.5	-221.25	-206.25	-213.75	-150
115	-116.25	-78.75	-7.5	-138.75	-213.75	-202.5	-210	-142.5
116	-48.75	-78.75	-3.75	-131.25	-210	-198.75	-210	-135
117	18.75	-82.5	-30	-157.5	-240	-228.75	-236.25	-161.25
118	18.75	-105	-48.75	-176.25	-262.5	-251.25	-251.25	-176.25
119	-30	-131.25	-33.75	-161.25	-247.5	-243.75	-240	-168.75
120	-41.25	-138.75	-18.75	-150	-236.25	-232.5	-232.5	-161.25
121	-37.5	-142.5	-15	-150	-240	-232.5	-236.25	-161.25
122	-71.25	-157.5	-11.25	-150	-236.25	-228.75	-232.5	-157.5
123	-123.75	-157.5	0	-142.5	-228.75	-213.75	-221.25	-146.25
124	-150	-146.25	15	-131.25	-213.75	-195	-198.75	-131.25
125	-157.5	-120	18.75	-123.75	-202.5	-183.75	-195	-131.25
126	-150	-101.25	7.5	-131.25	-213.75	-195	-210	-146.25
127	-135	-90	-7.5	-138.75	-225	-217.5	-232.5	-168.75
128	-105	-67.5	-11.25	-138.75	-240	-236.25	-251.25	-187.5
129	-18.75	-71.25	-3.75	-127.5	-255	-270	-288.75	-225
130	11.25	-153.75	56.25	-63.75	-243.75	-285	-307.5	-243.75
131	-26.25	-247.5	172.5	45	-202.5	-281.25	-307.5	-243.75
132	-15	-255	281.25	138.75	-176.25	-288.75	-326.25	-266.25
133	7.5	-217.5	352.5	210	-153.75	-292.5	-341.25	-277.5
134	-11.25	-221.25	412.5	288.75	-112.5	-277.5	-326.25	-266.25
135	-26.25	-217.5	480	393.75	-41.25	-225	-285	-228.75
136	-18.75	-146.25	540	498.75	48.75	-146.25	-221.25	-172.5
137	3.75	-48.75	573.75	577.5	127.5	-75	-157.5	-112.5
138	37.5	26.25	585	630	187.5	-15	-105	-67.5
139	82.5	90	592.5	678.75	247.5	45	-48.75	-11.25
140	165	183.75	600	753.75	333.75	138.75	45	78.75
141	315	307.5	540	765	408.75	232.5	153.75	176.25
142	416.25	442.5	438.75	690	468.75	348.75	281.25	296.25
143	431.25	588.75	311.25	592.5	551.25	502.5	438.75	435
144	453.75	716.25	191.25	517.5	660	678.75	618.75	588.75
145	468.75	866.25	127.5	502.5	798.75	885	821.25	761.25
146	438.75	1046.25	33.75	412.5	892.5	1068.75	1023.75	937.5
147	405	1271.25	-165	150	892.5	1218.75	1226.25	1147.5
148	378.75	1488.75	-408.75	-198.75	851.25	1361.25	1428.75	1365
149	360	1608.75	-656.25	-540	810	1488.75	1593.75	1526.25
150	360	1672.5	-877.5	-798.75	810	1627.5	1751.25	1661.25
151	348.75	1713.75	-1001.25	-922.5	862.5	1770	1886.25	1755
152	330	1702.5	-1027.5	-948.75	941.25	1878.75	1965	1777.5
153	318.75	1601.25	-1091.25	-1001.25	971.25	1916.25	1968.75	1736.25
154	232.5	1462.5	-1215	-1125	900	1845	1882.5	1635
155	86.25	1282.5	-1260	-1215	750	1646.25	1680	1447.5
156	-18.75	1038.75	-1188.75	-1215	555	1338.75	1368.75	1173.75
157	-41.25	840	-1106.25	-1218.75	288.75	963.75	1016.25	892.5
158	-67.5	686.25	-1076.25	-1297.5	-67.5	521.25	637.5	618.75
159	-198.75	487.5	-1050	-1380	-420	93.75	270	348.75
160	-311.25	311.25	-963.75	-1357.5	-603.75	-153.75	33.75	165
161	-315	195	-851.25	-1230	-596.25	-225	-75	52.5
162	-270	112.5	-768.75	-1061.25	-506.25	-213.75	-127.5	-22.5
163	-247.5	71.25	-708.75	-918.75	-423.75	-195	-150	-63.75
164	-198.75	56.25	-645	-798.75	-375	-176.25	-138.75	-67.5
165	-108.75	37.5	-600	-723.75	-371.25	-183.75	-146.25	-75
166	-75	15	-532.5	-630	-348.75	-180	-138.75	-71.25
167	-105	-18.75	-427.5	-491.25	-270	-127.5	-101.25	-48.75
168	-93.75	3.75	-337.5	-367.5	-191.25	-75	-60	-18.75
169	-56.25	48.75	-285	-292.5	-150	-56.25	-48.75	-3.75
170	-52.5	63.75	-236.25	-225	-116.25	-45	-45	0
171	-75	93.75	-172.5	-165	-82.5	-30	-41.25	3.75
172	-108.75	146.25	-105	-108.75	-48.75	-7.5	-26.25	7.5
173	-116.25	142.5	-60	-71.25	-30	3.75	-22.5	7.5
174	-108.75	60	-37.5	-48.75	-30	0	-30	3.75
175	-101.25	11.25	-15	-30	-26.25	-3.75	-33.75	0
176	-52.5	11.25	-3.75	-18.75	-26.25	-15	-45	-15
177	37.5	-22.5	-3.75	-15	-41.25	-37.5	-67.5	-33.75
178	56.25	-75	-3.75	-18.75	-56.25	-60	-86.25	-48.75
179	-3.75	-97.5	7.5	-11.25	-56.25	-60	-86.25	-48.75
180	-30	-101.25	15	-7.5	-63.75	-67.5	-90	-52.5
181	-11.25	-93.75	18.75	-7.5	-71.25	-71.25	-93.75	-56.25
182	-18.75	-86.25	22.5	-3.75	-71.25	-75	-93.75	-56.25
183	-93.75	-90	30	0	-75	-82.5	-105	-67.5
184	-161.25	-63.75	37.5	7.5	-71.25	-82.5	-112.5	-75
185	-146.25	-11.25	41.25	11.25	-67.5	-78.75	-116.25	-82.5
186	-90	33.75	37.5	11.25	-71.25	-86.25	-120	-86.25
187	-37.5	67.5	33.75	15	-75	-86.25	-127.5	-86.25
188	-15	41.25	18.75	7.5	-90	-105	-142.5	-97.5
189	7.5	-41.25	0	-11.25	-112.5	-131.25	-157.5	-112.5
190	7.5	-112.5	3.75	-7.5	-116.25	-135	-157.5	-108.75
191	-3.75	-112.5	30	18.75	-93.75	-112.5	-131.25	-86.25
192	-11.25	-97.5	52.5	41.25	-71.25	-86.25	-108.75	-60
193	-7.5	-105	67.5	56.25	-56.25	-75	-101.25	-60
194	-3.75	-105	75	63.75	-52.5	-71.25	-101.25	-67.5
195	-26.25	-86.25	71.25	56.25	-60	-75	-105	-75
196	-63.75	-52.5	71.25	56.25	-63.75	-75	-105	-75
197	-108.75	-37.5	71.25	60	-56.25	-71.25	-105	-75
198	-116.25	-45	67.5	60	-56.25	-71.25	-108.75	-75
199	-67.5	-33.75	63.75	63.75	-56.25	-71.25	-105	-67.5
200	-7.5	-7.5	60	60	-56.25	-71.25	-105	-67.5
201	63.75	0	37.5	41.25	-78.75	-97.5	-131.25	-86.25
202	82.5	-7.5	22.5	33.75	-93.75	-116.25	-142.5	-97.5
203	33.75	-15	30	37.5	-93.75	-116.25	-142.5	-97.5
204	3.75	-11.25	30	37.5	-93.75	-120	-146.25	-108.75
205	15	7.5	18.75	33.75	-97.5	-120	-150	-112.5
206	45	37.5	22.5	41.25	-90	-112.5	-138.75	-101.25
207	30	33.75	56.25	71.25	-60	-78.75	-105	-63.75
208	-52.5	-18.75	78.75	97.5	-33.75	-48.75	-78.75	-41.25
209	-123.75	-56.25	82.5	101.25	-26.25	-45	-82.5	-48.75
210	-93.75	-15	67.5	93.75	-37.5	-56.25	-97.5	-60
211	-22.5	37.5	67.5	93.75	-33.75	-52.5	-90	-52.5
212	18.75	11.25	63.75	97.5	-30	-52.5	-90	-52.5
213	71.25	-11.25	56.25	93.75	-37.5	-60	-97.5	-56.25
214	67.5	-41.25	48.75	86.25	-45	-67.5	-101.25	-60
215	18.75	-75	60	97.5	-37.5	-60	-90	-52.5
216	22.5	-41.25	67.5	105	-26.25	-52.5	-78.75	-41.25
217	22.5	-18.75	60	101.25	-33.75	-60	-86.25	-45
218	11.25	-22.5	60	108.75	-26.25	-48.75	-78.75	-41.25
219	-7.5	-7.5	86.25	135	3.75	-22.5	-52.5	-18.75
220	-56.25	11.25	93.75	138.75	7.5	-11.25	-48.75	-22.5
221	-86.25	22.5	78.75	131.25	0	-15	-52.5	-30
222	-52.5	30	71.25	127.5	0	-18.75	-56.25	-30
223	-22.5	11.25	71.25	135	3.75	-15	-56.25	-26.25
224	-11.25	-30	71.25	138.75	7.5	-15	-52.5	-18.75
225	45	-48.75	56.25	123.75	-7.5	-33.75	-71.25	-30
226	86.25	-56.25	41.25	116.25	-22.5	-52.5	-78.75	-37.5
227	48.75	-71.25	41.25	116.25	-22.5	-48.75	-71.25	-37.5
228	26.25	-52.5	45	123.75	-18.75	-41.25	-71.25	-37.5
229	41.25	-30	48.75	123.75	-15	-41.25	-71.25	-37.5
230	15	-63.75	52.5	131.25	-11.25	-37.5	-67.5	-33.75
231	-7.5	-60	60	142.5	3.75	-18.75	-52.5	-22.5
232	-18.75	-18.75	86.25	176.25	41.25	18.75	-18.75	7.5
233	-37.5	7.5	90	180	48.75	22.5	-22.5	7.5
234	-11.25	60	86.25	180	45	18.75	-26.25	3.75
235	52.5	123.75	86.25	191.25	56.25	33.75	-15	11.25
236	86.25	123.75	78.75	187.5	56.25	30	-15	3.75
237	120	78.75	45	168.75	33.75	7.5	-33.75	-7.5
238	146.25	60	41.25	165	26.25	-3.75	-37.5	-7.5
239	120	52.5	52.5	172.5	33.75	0	-30	-7.5
240	90	7.5	63.75	183.75	41.25	11.25	-22.5	0
241	82.5	-41.25	75	202.5	56.25	30	-3.75	18.75
242	67.5	-41.25	86.25	210	67.5	41.25	7.5	30
243	48.75	11.25	93.75	221.25	75	52.5	18.75	41.25
244	15	37.5	93.75	228.75	90	63.75	30	48.75
245	-15	22.5	101.25	232.5	93.75	67.5	30	45
246	37.5	60	116.25	247.5	101.25	75	37.5	52.5
247	105	120	116.25	262.5	116.25	90	52.5	71.25
248	123.75	112.5	86.25	240	93.75	71.25	30	56.25
249	168.75	75	52.5	206.25	60	30	-11.25	18.75
250	198.75	71.25	37.5	195	45	11.25	-22.5	7.5
251	142.5	60	52.5	206.25	52.5	22.5	-7.5	18.75
252	105	48.75	63.75	217.5	67.5	37.5	11.25	33.75
253	108.75	60	67.5	221.25	67.5	45	15	37.5
254	105	75	67.5	213.75	60	37.5	7.5	26.25
255	75	93.75	60	213.75	60	30	0	18.75
256	48.75	112.5	67.5	228.75	75	48.75	18.75	37.5
257	67.5	135	93.75	255	101.25	82.5	48.75	71.25
258	93.75	138.75	93.75	251.25	101.25	78.75	45	67.5
259	97.5	138.75	78.75	240	82.5	60	26.25	52.5
260	138.75	157.5	63.75	228.75	67.5	41.25	11.25	45
261	198.75	142.5	52.5	213.75	48.75	22.5	-3.75	37.5
262	213.75	105	56.25	213.75	45	18.75	-7.5	33.75
263	176.25	86.25	56.25	225	52.5	26.25	3.75	37.5
264	131.25	56.25	56.25	217.5	45	22.5	3.75	37.5
265	146.25	52.5	78.75	228.75	56.25	33.75	15	52.5
266	165	56.25	93.75	240	67.5	45	26.25	63.75
267	123.75	48.75	86.25	232.5	56.25	37.5	18.75	52.5
268	71.25	56.25	97.5	240	63.75	56.25	33.75	67.5
269	71.25	52.5	123.75	266.25	93.75	90	63.75	93.75
270	78.75	30	127.5	266.25	93.75	86.25	60	86.25
271	56.25	15	108.75	240	67.5	60	33.75	63.75
272	93.75	52.5	86.25	221.25	45	37.5	15	48.75
273	195	93.75	67.5	202.5	30	18.75	0	37.5
274	221.25	60	60	195	11.25	-3.75	-18.75	30
275	157.5	7.5	86.25	206.25	18.75	0	-11.25	37.5
276	146.25	15	101.25	213.75	26.25	7.5	0	45
277	161.25	56.25	97.5	202.5	15	0	-7.5	33.75
278	146.25	90	78.75	180	-7.5	-15	-18.75	22.5
279	112.5	90	82.5	176.25	-11.25	-11.25	-15	26.25
280	93.75	112.5	108.75	198.75	15	18.75	15	48.75
281	116.25	150	135	221.25	41.25	41.25	33.75	63.75
282	120	123.75	131.25	210	30	22.5	11.25	45
283	105	86.25	116.25	191.25	11.25	0	-15	26.25
284	101.25	75	108.75	183.75	0	-11.25	-22.5	22.5
285	142.5	63.75	101.25	168.75	-15	-30	-37.5	11.25
286	165	26.25	93.75	150	-41.25	-60	-63.75	-11.25
287	127.5	-15	101.25	142.5	-48.75	-63.75	-67.5	-18.75
288	105	-26.25	112.5	146.25	-41.25	-52.5	-48.75	-3.75
289	108.75	-18.75	112.5	142.5	-48.75	-60	-52.5	0
290	101.25	-7.5	120	138.75	-52.5	-67.5	-63.75	-11.25
291	56.25	22.5	127.5	138.75	-56.25	-71.25	-71.25	-26.25
292	-18.75	71.25	123.75	127.5	-60	-71.25	-75	-33.75
293	-67.5	90	112.5	108.75	-75	-86.25	-90	-45
294	-37.5	112.5	97.5	90	-86.25	-101.25	-101.25	-48.75
295	15	142.5	105	97.5	-78.75	-90	-90	-37.5
296	45	112.5	105	93.75	-82.5	-97.5	-97.5	-45
297	82.5	48.75	86.25	67.5	-105	-120	-108.75	-45
298	101.25	15	78.75	52.5	-116.25	-123.75	-105	-48.75
299	67.5	-3.75	86.25	60	-112.5	-127.5	-123.75	-75
300	18.75	-41.25	82.5	60	-112.5	-135	-135	-75
301	-11.25	-67.5	75	37.5	-131.25	-146.25	-142.5	-97.5
302	26.25	-41.25	90	37.5	-123.75	-135	-131.25	-90
303	56.25	-15	131.25	75	-82.5	-90	-82.5	-26.25
304	-3.75	-41.25	146.25	86.25	-71.25	-75	-75	-26.25
305	-75	-60	138.75	71.25	-82.5	-90	-97.5	-56.25
306	-86.25	-56.25	131.25	63.75	-90	-97.5	-101.25	-63.75
307	-63.75	-67.5	123.75	56.25	-93.75	-97.5	-97.5	-52.5
308	-37.5	-93.75	105	37.5	-112.5	-112.5	-108.75	-56.25
309	22.5	-97.5	75	7.5	-142.5	-146.25	-135	-82.5
310	33.75	-112.5	56.25	-15	-165	-176.25	-165	-105
311	-3.75	-135	63.75	-15	-165	-180	-172.5	-108.75
312	-30	-123.75	63.75	-22.5	-168.75	-180	-172.5	-112.5
313	-45	-108.75	56.25	-30	-176.25	-183.75	-176.25	-123.75
314	-15	-75	52.5	-33.75	-180	-187.5	-180	-127.5
315	-26.25	-18.75	56.25	-33.75	-180	-183.75	-176.25	-123.75
316	-97.5	3.75	63.75	-37.5	-176.25	-176.25	-172.5	-123.75
317	-135	0	63.75	-37.5	-176.25	-172.5	-172.5	-123.75
318	-120	-11.25	45	-56.25	-191.25	-187.5	-187.5	-135
319	-63.75	-7.5	45	-56.25	-187.5	-183.75	-183.75	-127.5
320	-15	-3.75	41.25	-52.5	-183.75	-180	-180	-123.75
321	30	-22.5	33.75	-60	-191.25	-195	-191.25	-131.25
322	26.25	-60	22.5	-78.75	-213.75	-213.75	-206.25	-142.5
323	-41.25	-93.75	26.25	-78.75	-210	-206.25	-191.25	-131.25
324	-63.75	-116.25	33.75	-71.25	-198.75	-191.25	-176.25	-116.25
325	-52.5	-123.75	41.25	-67.5	-191.25	-183.75	-168.75	-116.25
326	-48.75	-127.5	45	-67.5	-195	-187.5	-176.25	-123.75
327	-63.75	-112.5	52.5	-56.25	-183.75	-176.25	-168.75	-116.25
328	-101.25	-82.5	67.5	-41.25	-165	-161.25	-150	-105
329	-142.5	-63.75	71.25	-45	-168.75	-157.5	-150	-105
330	-131.25	-37.5	60	-56.25	-176.25	-165	-165	-112.5
331	-93.75	-7.5	52.5	-60	-176.25	-168.75	-168.75	-116.25
332	-67.5	-18.75	45	-63.75	-180	-172.5	-168.75	-112.5
333	-22.5	-75	26.25	-86.25	-202.5	-195	-183.75	-120
334	0	-116.25	7.5	-97.5	-221.25	-217.5	-202.5	-138.75
335	-26.25	-116.25	3.75	-93.75	-221.25	-221.25	-206.25	-142.5
336	-41.25	-105	11.25	-97.5	-225	-225	-210	-150
337	-33.75	-97.5	22.5	-93.75	-221.25	-221.25	-213.75	-153.75
338	-30	-112.5	26.25	-82.5	-210	-202.5	-195	-135
339	-63.75	-161.25	45	-67.5	-195	-180	-168.75	-112.5
340	-123.75	-161.25	71.25	-37.5	-161.25	-150	-138.75	-86.25
341	-157.5	-101.25	75	-33.75	-150	-142.5	-135	-78.75
342	-142.5	-45	56.25	-52.5	-165	-165	-161.25	-108.75
343	-108.75	-33.75	41.25	-67.5	-180	-172.5	-176.25	-123.75
344	-78.75	-52.5	33.75	-67.5	-183.75	-176.25	-176.25	-127.5
345	-15	-56.25	11.25	-86.25	-202.5	-198.75	-191.25	-135
346	11.25	-67.5	-7.5	-108.75	-225	-221.25	-210	-150
347	-18.75	-67.5	-7.5	-108.75	-225	-217.5	-206.25	-150
348	-37.5	-52.5	11.25	-93.75	-213.75	-206.25	-195	-146.25
349	-30	-45	22.5	-86.25	-206.25	-198.75	-183.75	-135
350	-18.75	-26.25	22.5	-86.25	-206.25	-198.75	-180	-127.5
351	-48.75	-18.75	22.5	-82.5	-198.75	-187.5	-168.75	-116.25
352	-93.75	-26.25	37.5	-67.5	-183.75	-168.75	-153.75	-105
353	-123.75	-30	52.5	-52.5	-168.75	-157.5	-150	-101.25
354	-135	-48.75	48.75	-52.5	-168.75	-165	-161.25	-108.75
355	-131.25	-67.5	45	-56.25	-168.75	-165	-165	-112.5
356	-93.75	-75	45	-56.25	-172.5	-165	-168.75	-116.25
357	0	-71.25	18.75	-71.25	-187.5	-183.75	-180	-120
358	26.25	-67.5	-11.25	-90	-210	-210	-202.5	-135
359	-33.75	-93.75	0	-93.75	-213.75	-210	-202.5	-138.75
360	-60	-112.5	15	-86.25	-206.25	-202.5	-191.25	-131.25
361	-48.75	-90	22.5	-71.25	-195	-191.25	-180	-123.75
362	-41.25	-86.25	33.75	-60	-180	-176.25	-165	-105
363	-63.75	-101.25	60	-37.5	-157.5	-150	-138.75	-78.75
364	-90	-97.5	75	-18.75	-138.75	-127.5	-120	-63.75
365	-123.75	-93.75	75	-15	-131.25	-123.75	-120	-67.5
366	-142.5	-105	60	-37.5	-150	-138.75	-135	-86.25
367	-123.75	-90	45	-45	-161.25	-150	-146.25	-93.75
368	-56.25	-26.25	41.25	-41.25	-157.5	-146.25	-142.5	-90
369	22.5	-3.75	26.25	-56.25	-172.5	-161.25	-161.25	-101.25
370	30	-45	3.75	-78.75	-195	-191.25	-183.75	-123.75
371	-18.75	-82.5	7.5	-78.75	-198.75	-191.25	-183.75	-127.5
372	-45	-90	18.75	-71.25	-191.25	-180	-168.75	-116.25
373	-60	-97.5	22.5	-71.25	-191.25	-180	-165	-105
374	-37.5	-86.25	30	-60	-180	-176.25	-161.25	-105
375	-33.75	-60	37.5	-52.5	-168.75	-165	-157.5	-97.5
376	-93.75	-33.75	45	-52.5	-168.75	-161.25	-153.75	-93.75
377	-142.5	-18.75	52.5	-45	-161.25	-150	-142.5	-86.25
378	-131.25	-11.25	41.25	-52.5	-165	-150	-142.5	-90
379	-135	-33.75	18.75	-71.25	-180	-161.25	-157.5	-105
380	-127.5	-60	0	-86.25	-198.75	-180	-180	-123.75
381	-26.25	-52.5	-7.5	-90	-206.25	-195	-198.75	-142.5
382	52.5	-48.75	-3.75	-90	-202.5	-195	-191.25	-135
383	-3.75	-75	7.5	-75	-187.5	-176.25	-168.75	-112.5
384	-60	-97.5	22.5	-63.75	-180	-165	-153.75	-101.25
385	-33.75	-82.5	30	-60	-180	-161.25	-150	-105
386	-7.5	-63.75	33.75	-56.25	-172.5	-157.5	-146.25	-101.25
387	-41.25	-78.75	33.75	-56.25	-172.5	-157.5	-150	-101.25
388	-86.25	-67.5	45	-48.75	-165	-150	-142.5	-93.75
389	-120	-11.25	52.5	-41.25	-157.5	-135	-131.25	-75
390	-120	37.5	37.5	-52.5	-161.25	-138.75	-138.75	-82.5
391	-90	30	18.75	-67.5	-180	-157.5	-157.5	-105
392	-56.25	7.5	7.5	-75	-183.75	-168.75	-165	-101.25
393	-11.25	-63.75	-15	-93.75	-206.25	-195	-187.5	-123.75
394	18.75	-135	-18.75	-105	-217.5	-202.5	-195	-135
395	11.25	-120	0	-93.75	-206.25	-187.5	-172.5	-116.25
396	0	-82.5	18.75	-78.75	-195	-176.25	-165	-105
397	-33.75	-97.5	22.5	-75	-191.25	-176.25	-168.75	-112.5
398	-86.25	-142.5	18.75	-71.25	-191.25	-176.25	-168.75	-116.25
399	-131.25	-146.25	3.75	-90	-206.25	-191.25	-172.5	-123.75
400	-180	-105	0	-101.25	-213.75	-195	-176.25	-127.5
401	-180	-48.75	18.75	-93.75	-202.5	-183.75	-172.5	-112.5
402	-127.5	-30	37.5	-67.5	-176.25	-157.5	-150	-90
403	-101.25	-52.5	41.25	-63.75	-172.5	-150	-150	-93.75
404	-90	-60	22.5	-75	-183.75	-165	-165	-105
405	-7.5	-41.25	-3.75	-101.25	-210	-187.5	-183.75	-120
406	71.25	-33.75	-11.25	-112.5	-221.25	-210	-198.75	-135
407	30	-56.25	3.75	-101.25	-213.75	-206.25	-191.25	-127.5
408	-33.75	-71.25	3.75	-105	-217.5	-206.25	-191.25	-127.5
409	-33.75	-63.75	-7.5	-116.25	-232.5	-213.75	-198.75	-131.25
410	-30	-71.25	0	-108.75	-221.25	-202.5	-183.75	-120
411	-60	-78.75	15	-86.25	-198.75	-176.25	-157.5	-93.75
412	-101.25	-60	33.75	-67.5	-176.25	-150	-135	-82.5
413	-146.25	-63.75	37.5	-71.25	-176.25	-150	-146.25	-93.75
414	-153.75	-75	22.5	-93.75	-195	-172.5	-172.5	-116.25
415	-135	-101.25	7.5	-105	-206.25	-183.75	-180	-127.5
416	-108.75	-120	0	-116.25	-217.5	-191.25	-187.5	-127.5
417	-33.75	-105	-22.5	-135	-240	-213.75	-202.5	-138.75
418	11.25	-120	-37.5	-146.25	-251.25	-228.75	-217.5	-153.75
419	-30	-146.25	-45	-150	-255	-232.5	-221.25	-157.5
420	-56.25	-127.5	-37.5	-150	-255	-225	-210	-146.25
421	-30	-90	-15	-135	-240	-213.75	-198.75	-135
422	-15	-63.75	-11.25	-135	-236.25	-213.75	-195	-135
423	-41.25	-52.5	0	-120	-225	-198.75	-183.75	-120
424	-93.75	-48.75	26.25	-97.5	-202.5	-176.25	-161.25	-105
425	-135	-45	33.75	-93.75	-198.75	-168.75	-157.5	-97.5
426	-131.25	-37.5	22.5	-105	-206.25	-180	-168.75	-105
427	-90	-30	0	-127.5	-225	-198.75	-195	-123.75
428	-86.25	-52.5	-18.75	-142.5	-243.75	-221.25	-217.5	-138.75
429	-45	-75	-33.75	-153.75	-258.75	-240	-228.75	-146.25
430	0	-93.75	-22.5	-142.5	-255	-236.25	-217.5	-138.75
431	-11.25	-97.5	0	-131.25	-240	-217.5	-191.25	-120
432	-30	-108.75	3.75	-131.25	-228.75	-198.75	-172.5	-105
433	-37.5	-116.25	-3.75	-127.5	-225	-198.75	-176.25	-108.75
434	-63.75	-112.5	-7.5	-127.5	-232.5	-210	-191.25	-120
435	-108.75	-127.5	-7.5	-131.25	-240	-213.75	-195	-131.25
436	-153.75	-138.75	7.5	-123.75	-228.75	-202.5	-187.5	-127.5
437	-161.25	-101.25	26.25	-108.75	-210	-180	-165	-105
438	-120	-48.75	18.75	-108.75	-210	-180	-161.25	-97.5
439	-90	-45	-3.75	-120	-221.25	-187.5	-172.5	-112.5
440	-82.5	-60	-11.25	-127.5	-228.75	-198.75	-187.5	-123.75
441	-30	-48.75	-30	-153.75	-258.75	-236.25	-221.25	-146.25
442	18.75	-41.25	-52.5	-176.25	-281.25	-262.5	-240	-157.5
443	-15	-78.75	-41.25	-168.75	-273.75	-255	-225	-146.25
444	-60	-101.25	-18.75	-146.25	-255	-232.5	-202.5	-127.5
445	-75	-93.75	-7.5	-127.5	-240	-217.5	-191.25	-120
446	-56.25	-63.75	11.25	-112.5	-228.75	-210	-191.25	-123.75
447	-52.5	-18.75	41.25	-101.25	-210	-187.5	-172.5	-105
448	-131.25	-37.5	60	-90	-195	-168.75	-150	-86.25
449	-176.25	-60	63.75	-82.5	-187.5	-157.5	-146.25	-90
450	-135	-37.5	63.75	-82.5	-183.75	-153.75	-142.5	-86.25
451	-112.5	-22.5	60	-82.5	-187.5	-153.75	-138.75	-78.75
452	-97.5	-18.75	63.75	-86.25	-191.25	-161.25	-153.75	-86.25
453	-30	-22.5	48.75	-101.25	-210	-191.25	-183.75	-108.75
454	11.25	-37.5	18.75	-123.75	-236.25	-221.25	-198.75	-127.5
455	-26.25	-48.75	11.25	-131.25	-247.5	-228.75	-206.25	-135
456	-52.5	-45	18.75	-131.25	-247.5	-232.5	-210	-138.75
457	-56.25	-26.25	26.25	-127.5	-247.5	-228.75	-210	-135
458	-86.25	-15	37.5	-120	-243.75	-225	-202.5	-131.25
459	-93.75	-3.75	63.75	-97.5	-217.5	-198.75	-187.5	-116.25
460	-82.5	26.25	105	-56.25	-176.25	-157.5	-142.5	-78.75
461	-97.5	48.75	116.25	-41.25	-161.25	-135	-123.75	-56.25
462	-101.25	63.75	101.25	-48.75	-161.25	-138.75	-127.5	-60
463	-105	60	86.25	-63.75	-168.75	-142.5	-135	-67.5
464	-97.5	33.75	67.5	-67.5	-172.5	-142.5	-127.5	-63.75
465	-26.25	-3.75	33.75	-86.25	-187.5	-157.5	-142.5	-71.25
466	15	-67.5	0	-108.75	-213.75	-187.5	-165	-86.25
467	0	-82.5	-11.25	-112.5	-213.75	-187.5	-165	-90
468	11.25	-11.25	-11.25	-108.75	-206.25	-183.75	-161.25	-86.25
469	18.75	18.75	-18.75	-116.25	-221.25	-195	-172.5	-93.75
470	3.75	-7.5	-26.25	-123.75	-225	-202.5	-180	-97.5
471	-3.75	-22.5	-11.25	-112.5	-213.75	-187.5	-165	-86.25
472	-48.75	-33.75	0	-101.25	-202.5	-165	-142.5	-67.5
473	-123.75	-52.5	-22.5	-123.75	-221.25	-176.25	-150	-78.75
474	-123.75	-45	-41.25	-135	-228.75	-180	-161.25	-90
475	-48.75	-3.75	-41.25	-127.5	-213.75	-172.5	-161.25	-90
476	22.5	30	-18.75	-108.75	-198.75	-157.5	-146.25	-71.25
477	33.75	-26.25	-37.5	-127.5	-221.25	-183.75	-165	-90
478	11.25	-82.5	-67.5	-165	-262.5	-225	-202.5	-131.25
479	-11.25	-52.5	-48.75	-161.25	-258.75	-225	-198.75	-123.75
480	7.5	-15	-26.25	-138.75	-240	-202.5	-180	-105
481	30	-7.5	-22.5	-135	-236.25	-198.75	-176.25	-101.25
482	-7.5	-26.25	-18.75	-138.75	-240	-202.5	-180	-105
483	-78.75	-56.25	-22.5	-146.25	-247.5	-213.75	-191.25	-120
484	-123.75	-45	-18.75	-146.25	-243.75	-213.75	-195	-123.75
485	-116.25	-7.5	-3.75	-131.25	-228.75	-195	-180	-108.75
486	-93.75	0	0	-127.5	-228.75	-187.5	-176.25	-105
487	-93.75	-22.5	-11.25	-138.75	-236.25	-198.75	-187.5	-112.5
488	-75	-30	-26.25	-153.75	-251.25	-217.5	-202.5	-123.75
489	-15	-52.5	-52.5	-183.75	-281.25	-247.5	-228.75	-142.5
490	7.5	-108.75	-63.75	-191.25	-288.75	-258.75	-243.75	-153.75
491	-37.5	-165	-45	-176.25	-281.25	-247.5	-232.5	-150
492	-60	-165	-37.5	-176.25	-288.75	-251.25	-228.75	-153.75
493	-52.5	-120	-33.75	-176.25	-292.5	-258.75	-236.25	-157.5
494	-67.5	-112.5	-45	-198.75	-307.5	-273.75	-247.5	-168.75
495	-97.5	-131.25	-52.5	-202.5	-303.75	-270	-243.75	-165
496	-135	-123.75	-30	-165	-273.75	-240	-225	-150
497	-146.25	-90	-7.5	-146.25	-255	-217.5	-210	-142.5
498	-120	-63.75	-30	-168.75	-273.75	-228.75	-221.25	-150
499	-116.25	-33.75	-48.75	-183.75	-285	-240	-228.75	-150
500	-123.75	-37.5	-48.75	-183.75	-281.25	-240	-225	-146.25
501	-75	-82.5	-71.25	-202.5	-307.5	-270	-258.75	-176.25
502	-11.25	-93.75	-82.5	-210	-322.5	-285	-266.25	-183.75
503	18.75	-75	-56.25	-187.5	-296.25	-262.5	-243.75	-157.5
504	-11.25	-101.25	-37.5	-168.75	-281.25	-247.5	-228.75	-142.5
505	-48.75	-146.25	-37.5	-172.5	-285	-247.5	-228.75	-142.5
506	-82.5	-191.25	-33.75	-180	-288.75	-251.25	-232.5	-142.5
507	-108.75	-202.5	-22.5	-168.75	-281.25	-243.75	-225	-138.75
508	-123.75	-172.5	-11.25	-157.5	-266.25	-228.75	-210	-131.25
509	-142.5	-131.25	-7.5	-157.5	-266.25	-225	-213.75	-138.75
510	-142.5	-101.25	-15	-161.25	-266.25	-225	-221.25	-150
511	-120	-90	-33.75	-168.75	-270	-232.5	-228.75	-153.75
512	-101.25	-86.25	-52.5	-183.75	-288.75	-247.5	-243.75	-168.75
513	-60	-90	-78.75	-210	-315	-273.75	-266.25	-187.5
514	-37.5	-120	-105	-236.25	-345	-300	-277.5	-202.5
515	-60	-161.25	-90	-217.5	-333.75	-288.75	-258.75	-195
516	-93.75	-191.25	-52.5	-187.5	-322.5	-292.5	-273.75	-210
517	-108.75	-206.25	-3.75	-146.25	-311.25	-300	-296.25	-228.75
518	-82.5	-213.75	75	-63.75	-281.25	-300	-300	-232.5
519	-45	-210	172.5	33.75	-243.75	-296.25	-311.25	-247.5
520	-60	-225	273.75	120	-217.5	-300	-326.25	-262.5
521	-116.25	-243.75	348.75	183.75	-206.25	-307.5	-337.5	-270
522	-112.5	-213.75	405	262.5	-161.25	-288.75	-326.25	-258.75
523	-63.75	-153.75	446.25	345	-108.75	-258.75	-307.5	-247.5
524	-3.75	-75	483.75	420	-52.5	-217.5	-273.75	-213.75
525	135	18.75	517.5	491.25	18.75	-157.5	-213.75	-150
526	240	105	525	547.5	86.25	-97.5	-153.75	-97.5
527	255	183.75	540	618.75	161.25	-18.75	-82.5	-41.25
528	281.25	262.5	562.5	716.25	273.75	105	37.5	67.5
529	333.75	341.25	532.5	750	386.25	251.25	187.5	202.5
530	348.75	446.25	420	663.75	450	367.5	318.75	322.5
531	356.25	596.25	277.5	558.75	521.25	510	468.75	461.25
532	360	742.5	180	517.5	652.5	708.75	660	626.25
533	356.25	873.75	127.5	513.75	806.25	918.75	866.25	802.5
534	375	1080	11.25	401.25	896.25	1106.25	1068.75	993.75
535	401.25	1346.25	-221.25	112.5	877.5	1237.5	1256.25	1192.5
536	423.75	1563.75	-487.5	-240	825	1357.5	1436.25	1383.75
537	506.25	1653.75	-742.5	-573.75	776.25	1462.5	1582.5	1530
538	566.25	1668.75	-967.5	-817.5	768.75	1575	1713.75	1638.75
539	472.5	1650	-1083.75	-937.5	821.25	1702.5	1830	1713.75
540	348.75	1623.75	-1095	-963.75	900	1818.75	1912.5	1736.25
541	281.25	1552.5	-1128.75	-993.75	956.25	1890	1946.25	1721.25
542	232.5	1440	-1226.25	-1095	900	1830	1867.5	1635
543	142.5	1260	-1263.75	-1173.75	738.75	1612.5	1650	1440
544	-3.75	1046.25	-1181.25	-1170	536.25	1290	1323.75	1166.25
545	-135	851.25	-1117.5	-1207.5	243.75	892.5	956.25	870
546	-206.25	648.75	-1110	-1320	-138.75	438.75	562.5	573.75
547	-255	457.5	-1076.25	-1398.75	-487.5	26.25	206.25	307.5
548	-292.5	303.75	-997.5	-1380	-663.75	-213.75	-26.25	116.25
549	-240	183.75	-918.75	-1275	-667.5	-296.25	-142.5	-7.5
550	-157.5	90	-855	-1117.5	-592.5	-303.75	-195	-75
551	-157.5	15	-768.75	-960	-510	-277.5	-206.25	-105
552	-172.5	-37.5	-675	-832.5	-450	-232.5	-172.5	-86.25
553	-131.25	-45	-596.25	-727.5	-408.75	-198.75	-135	-56.25
554	-97.5	-41.25	-513.75	-611.25	-360	-172.5	-116.25	-45
555	-127.5	-33.75	-423.75	-483.75	-288.75	-127.5	-97.5	-37.5
556	-157.5	22.5	-341.25	-360	-210	-75	-56.25	-15
557	-172.5	52.5	-277.5	-281.25	-165	-48.75	-41.25	0
558	-153.75	56.25	-221.25	-225	-135	-33.75	-37.5	3.75
559	-105	71.25	-172.5	-168.75	-105	-22.5	-33.75	7.5
560	-52.5	97.5	-123.75	-123.75	-86.25	-22.5	-33.75	3.75
561	15	86.25	-123.75	-123.75	-108.75	-52.5	-67.5	-26.25
562	45	22.5	-123.75	-127.5	-131.25	-86.25	-93.75	-52.5
563	33.75	-3.75	-75	-90	-116.25	-78.75	-86.25	-41.25
564	18.75	3.75	-41.25	-67.5	-105	-71.25	-78.75	-37.5
565	18.75	-15	-30	-56.25	-108.75	-75	-82.5	-37.5
566	-11.25	-60	-22.5	-52.5	-112.5	-86.25	-90	-45
567	-48.75	-56.25	-18.75	-56.25	-127.5	-105	-112.5	-71.25
568	-86.25	-15	-15	-52.5	-131.25	-108.75	-120	-82.5
569	-101.25	0	0	-37.5	-120	-97.5	-112.5	-75
570	-86.25	-3.75	7.5	-26.25	-116.25	-97.5	-112.5	-71.25
571	-75	-7.5	0	-30	-123.75	-108.75	-127.5	-82.5
572	-86.25	-15	-3.75	-33.75	-131.25	-120	-142.5	-93.75
573	-37.5	-30	-22.5	-52.5	-153.75	-150	-165	-112.5
574	41.25	-33.75	-41.25	-67.5	-172.5	-168.75	-183.75	-123.75
575	30	-22.5	-45	-71.25	-180	-176.25	-187.5	-131.25
576	-26.25	-45	-30	-60	-176.25	-172.5	-183.75	-131.25
577	-52.5	-86.25	-15	-48.75	-165	-165	-176.25	-127.5
578	-56.25	-101.25	-3.75	-33.75	-157.5	-157.5	-165	-120
579	-48.75	-93.75	15	-15	-138.75	-135	-146.25	-101.25
580	-63.75	-60	33.75	3.75	-120	-116.25	-127.5	-82.5
581	-86.25	-22.5	48.75	18.75	-105	-97.5	-105	-63.75
582	-75	-3.75	48.75	30	-97.5	-86.25	-97.5	-56.25
583	-45	-3.75	26.25	11.25	-116.25	-105	-116.25	-75
584	-30	-22.5	26.25	3.75	-123.75	-112.5	-131.25	-86.25
585	7.5	-41.25	15	-3.75	-135	-127.5	-142.5	-93.75
586	52.5	-52.5	-15	-26.25	-161.25	-161.25	-168.75	-116.25
587	37.5	-33.75	-18.75	-30	-168.75	-176.25	-180	-123.75
588	22.5	0	-7.5	-22.5	-161.25	-165	-172.5	-120
589	33.75	-3.75	3.75	-11.25	-150	-153.75	-165	-112.5
590	30	-33.75	18.75	7.5	-131.25	-138.75	-150	-97.5
591	-15	-60	33.75	26.25	-112.5	-116.25	-123.75	-75
592	-75	-78.75	48.75	45	-93.75	-93.75	-101.25	-52.5
593	-105	-82.5	63.75	56.25	-78.75	-75	-86.25	-41.25
594	-101.25	-71.25	67.5	63.75	-71.25	-60	-78.75	-45
595	-67.5	-56.25	52.5	56.25	-78.75	-71.25	-86.25	-56.25
596	-41.25	-45	41.25	52.5	-82.5	-82.5	-101.25	-56.25
597	15	-37.5	18.75	33.75	-105	-105	-120	-71.25
598	63.75	-71.25	3.75	18.75	-120	-120	-127.5	-82.5
599	33.75	-112.5	3.75	22.5	-116.25	-116.25	-123.75	-82.5
600	-11.25	-105	11.25	26.25	-116.25	-112.5	-123.75	-90
601	-18.75	-75	11.25	22.5	-120	-120	-131.25	-93.75
602	22.5	-45	15	30	-116.25	-120	-127.5	-82.5
603	22.5	-41.25	26.25	48.75	-93.75	-97.5	-108.75	-67.5
604	-33.75	-37.5	37.5	63.75	-78.75	-82.5	-97.5	-60
605	-71.25	-15	52.5	75	-63.75	-71.25	-93.75	-56.25
606	-52.5	-3.75	56.25	86.25	-56.25	-60	-86.25	-48.75
607	-37.5	-11.25	30	71.25	-67.5	-71.25	-93.75	-60
608	-48.75	-37.5	11.25	52.5	-82.5	-86.25	-108.75	-71.25
609	-7.5	-63.75	3.75	41.25	-101.25	-105	-123.75	-78.75
610	75	-45	0	41.25	-105	-112.5	-123.75	-75
611	78.75	-18.75	15	60	-90	-97.5	-105	-60
612	52.5	-26.25	30	71.25	-75	-78.75	-86.25	-52.5
613	52.5	-45	33.75	82.5	-63.75	-63.75	-75	-41.25
614	67.5	-18.75	30	93.75	-56.25	-56.25	-71.25	-41.25
615	60	22.5	30	90	-60	-60	-78.75	-52.5
616	-7.5	37.5	37.5	90	-56.25	-60	-75	-48.75
617	-48.75	67.5	52.5	108.75	-33.75	-33.75	-56.25	-30
618	-30	63.75	48.75	116.25	-30	-30	-52.5	-26.25
619	-15	18.75	37.5	105	-37.5	-37.5	-60	-30
620	18.75	26.25	33.75	108.75	-30	-33.75	-56.25	-18.75
621	75	15	18.75	105	-37.5	-45	-71.25	-33.75
622	123.75	-11.25	15	105	-41.25	-52.5	-78.75	-41.25
623	142.5	18.75	30	120	-30	-45	-60	-22.5
624	105	7.5	26.25	116.25	-33.75	-45	-56.25	-22.5
625	63.75	-33.75	30	120	-26.25	-33.75	-45	-11.25
626	67.5	-45	37.5	131.25	-15	-22.5	-30	0
627	60	-45	52.5	150	-3.75	-11.25	-22.5	3.75
628	26.25	-15	60	161.25	11.25	0	-18.75	0
629	3.75	37.5	67.5	168.75	18.75	11.25	-7.5	7.5
630	11.25	63.75	63.75	172.5	26.25	18.75	0	22.5
631	15	45	52.5	172.5	30	26.25	0	22.5
632	41.25	41.25	41.25	172.5	26.25	22.5	0	15
633	120	52.5	22.5	153.75	7.5	3.75	-11.25	11.25
634	195	67.5	11.25	146.25	-3.75	-11.25	-18.75	15
635	168.75	56.25	15	153.75	0	-11.25	-18.75	15
636	112.5	26.25	22.5	153.75	0	-11.25	-18.75	11.25
637	101.25	33.75	18.75	150	-3.75	-7.5	-22.5	-3.75
638	97.5	37.5	18.75	153.75	-3.75	-3.75	-15	0
639	63.75	7.5	22.5	161.25	3.75	3.75	-7.5	7.5
640	7.5	-15	37.5	172.5	18.75	15	0	15
641	-26.25	-11.25	56.25	187.5	33.75	26.25	7.5	22.5
642	7.5	37.5	56.25	195	37.5	33.75	11.25	26.25
643	82.5	93.75	37.5	180	26.25	22.5	3.75	22.5
644	150	142.5	45	195	33.75	33.75	15	41.25
645	210	172.5	45	191.25	26.25	18.75	3.75	37.5
646	240	157.5	11.25	150	-11.25	-15	-22.5	11.25
647	202.5	101.25	3.75	150	-11.25	-11.25	-18.75	7.5
648	150	45	26.25	176.25	3.75	3.75	0	18.75
649	135	11.25	45	187.5	11.25	15	15	33.75
650	161.25	11.25	56.25	195	22.5	30	30	56.25
651	161.25	3.75	67.5	210	33.75	33.75	33.75	67.5
652	105	-15	78.75	213.75	41.25	45	41.25	71.25
653	52.5	-3.75	90	225	52.5	63.75	60	78.75
654	67.5	37.5	90	225	48.75	60	48.75	71.25
655	93.75	60	78.75	213.75	41.25	48.75	33.75	60
656	101.25	67.5	63.75	202.5	26.25	37.5	26.25	56.25
657	161.25	75	41.25	172.5	0	3.75	0	33.75
658	221.25	105	15	138.75	-37.5	-33.75	-37.5	3.75
659	191.25	108.75	7.5	127.5	-60	-56.25	-56.25	-15
660	146.25	75	22.5	138.75	-52.5	-48.75	-45	-7.5
661	142.5	71.25	30	146.25	-48.75	-41.25	-37.5	0
662	153.75	75	22.5	131.25	-56.25	-45	-41.25	0
663	123.75	30	37.5	142.5	-45	-33.75	-26.25	11.25
664	52.5	-3.75	63.75	161.25	-30	-18.75	-15	22.5
665	30	37.5	82.5	172.5	-18.75	-3.75	-7.5	30
666	41.25	86.25	82.5	168.75	-22.5	-3.75	-7.5	30
667	56.25	82.5	75	157.5	-33.75	-15	-15	26.25
668	93.75	78.75	67.5	146.25	-45	-26.25	-22.5	26.25
669	150	48.75	60	142.5	-52.5	-37.5	-33.75	18.75
670	191.25	-26.25	63.75	138.75	-60	-45	-33.75	18.75
671	191.25	-37.5	86.25	153.75	-45	-30	-15	37.5
672	165	7.5	93.75	150	-52.5	-37.5	-26.25	26.25
673	112.5	3.75	75	120	-86.25	-71.25	-60	-7.5
674	90	11.25	63.75	105	-101.25	-90	-82.5	-26.25
675	82.5	37.5	75	108.75	-93.75	-82.5	-78.75	-22.5
676	48.75	41.25	97.5	123.75	-75	-67.5	-63.75	-11.25
677	15	56.25	108.75	127.5	-71.25	-56.25	-56.25	-11.25
678	-11.25	45	105	120	-75	-60	-60	-15
679	0	18.75	101.25	112.5	-82.5	-67.5	-67.5	-15
680	30	26.25	101.25	108.75	-82.5	-71.25	-67.5	-15
681	82.5	11.25	86.25	93.75	-97.5	-86.25	-82.5	-30
682	150	-15	75	75	-120	-112.5	-101.25	-41.25
683	127.5	-37.5	78.75	63.75	-131.25	-123.75	-112.5	-52.5
684	48.75	-78.75	78.75	56.25	-138.75	-131.25	-120	-63.75
685	26.25	-97.5	78.75	52.5	-142.5	-131.25	-116.25	-67.5
686	45	-63.75	82.5	52.5	-138.75	-127.5	-112.5	-63.75
687	15	-48.75	78.75	41.25	-146.25	-131.25	-116.25	-67.5
688	-41.25	-26.25	86.25	41.25	-138.75	-127.5	-116.25	-71.25
689	-52.5	33.75	90	37.5	-135	-123.75	-123.75	-78.75
690	-56.25	52.5	78.75	26.25	-146.25	-127.5	-127.5	-82.5
691	-37.5	41.25	67.5	15	-157.5	-135	-131.25	-82.5
692	-11.25	26.25	63.75	15	-153.75	-138.75	-135	-86.25
693	26.25	3.75	48.75	-3.75	-168.75	-157.5	-157.5	-108.75
694	37.5	-45	33.75	-30	-198.75	-191.25	-187.5	-127.5
695	0	-97.5	41.25	-26.25	-198.75	-191.25	-183.75	-120
696	-30	-101.25	52.5	-22.5	-191.25	-183.75	-172.5	-112.5
697	-30	-90	48.75	-30	-195	-187.5	-172.5	-112.5
698	-11.25	-101.25	52.5	-26.25	-191.25	-180	-168.75	-105
699	-7.5	-116.25	67.5	-11.25	-172.5	-157.5	-146.25	-86.25
700	-45	-120	71.25	-15	-168.75	-150	-135	-82.5
701	-112.5	-123.75	63.75	-22.5	-176.25	-150	-142.5	-93.75
702	-123.75	-127.5	67.5	-26.25	-172.5	-146.25	-146.25	-97.5
703	-86.25	-116.25	60	-37.5	-183.75	-161.25	-157.5	-108.75
704	-60	-90	45	-52.5	-198.75	-180	-172.5	-116.25
705	-15	-67.5	33.75	-60	-210	-191.25	-183.75	-120
706	11.25	-120	18.75	-75	-225	-206.25	-195	-127.5
707	-37.5	-187.5	15	-86.25	-236.25	-217.5	-202.5	-142.5
708	-67.5	-157.5	22.5	-82.5	-236.25	-213.75	-198.75	-142.5
709	-45	-97.5	22.5	-82.5	-232.5	-210	-195	-142.5
710	-26.25	-93.75	30	-78.75	-225	-202.5	-191.25	-138.75
711	-30	-97.5	45	-67.5	-213.75	-191.25	-180	-123.75
712	-90	-101.25	48.75	-67.5	-213.75	-191.25	-180	-123.75
713	-165	-116.25	52.5	-67.5	-206.25	-183.75	-176.25	-116.25
714	-157.5	-105	45	-71.25	-210	-183.75	-176.25	-116.25
715	-101.25	-82.5	37.5	-78.75	-217.5	-191.25	-180	-112.5
716	-78.75	-82.5	33.75	-86.25	-221.25	-191.25	-172.5	-105
717	-48.75	-75	7.5	-108.75	-243.75	-210	-187.5	-120
718	22.5	-60	-3.75	-116.25	-255	-217.5	-198.75	-138.75
719	18.75	-75	7.5	-108.75	-243.75	-217.5	-198.75	-146.25
720	-22.5	-71.25	15	-101.25	-236.25	-213.75	-202.5	-146.25
721	-37.5	-60	11.25	-105	-240	-221.25	-210	-153.75
722	-56.25	-90	3.75	-116.25	-247.5	-225	-213.75	-157.5
723	-82.5	-123.75	3.75	-112.5	-247.5	-217.5	-202.5	-150
724	-116.25	-123.75	30	-86.25	-217.5	-187.5	-168.75	-120
725	-127.5	-97.5	60	-56.25	-183.75	-153.75	-138.75	-86.25
726	-120	-82.5	60	-56.25	-180	-150	-138.75	-86.25
727	-108.75	-105	41.25	-67.5	-195	-168.75	-161.25	-108.75
728	-97.5	-116.25	30	-75	-202.5	-180	-172.5	-116.25
729	-67.5	-116.25	7.5	-101.25	-225	-202.5	-191.25	-135
730	-18.75	-120	-18.75	-131.25	-255	-232.5	-217.5	-157.5
731	-22.5	-120	-15	-123.75	-251.25	-232.5	-213.75	-153.75
732	-41.25	-120	7.5	-101.25	-228.75	-206.25	-187.5	-131.25
733	-41.25	-142.5	15	-93.75	-221.25	-198.75	-180	-123.75
734	-37.5	-142.5	7.5	-105	-228.75	-206.25	-187.5	-131.25
735	-48.75	-116.25	18.75	-90	-221.25	-195	-176.25	-120
736	-97.5	-112.5	37.5	-67.5	-198.75	-176.25	-161.25	-105
737	-142.5	-116.25	45	-63.75	-191.25	-168.75	-153.75	-105
738	-153.75	-116.25	37.5	-67.5	-191.25	-168.75	-161.25	-108.75
739	-127.5	-116.25	22.5	-75	-195	-176.25	-161.25	-108.75
740	-82.5	-97.5	22.5	-67.5	-191.25	-172.5	-161.25	-105
741	-22.5	-78.75	26.25	-71.25	-195	-172.5	-165	-108.75
742	-3.75	-131.25	-3.75	-105	-228.75	-213.75	-198.75	-138.75
743	-33.75	-165	-11.25	-112.5	-243.75	-228.75	-210	-146.25
744	-26.25	-112.5	7.5	-90	-221.25	-206.25	-183.75	-127.5
745	0	-56.25	18.75	-78.75	-206.25	-187.5	-165	-112.5
746	-7.5	-60	15	-82.5	-210	-187.5	-165	-112.5
747	-45	-90	15	-82.5	-206.25	-187.5	-165	-116.25
748	-86.25	-90	26.25	-71.25	-195	-176.25	-153.75	-112.5
749	-127.5	-71.25	37.5	-60	-183.75	-161.25	-146.25	-108.75
750	-135	-56.25	41.25	-60	-180	-153.75	-142.5	-105
751	-116.25	-60	26.25	-67.5	-187.5	-157.5	-138.75	-93.75
752	-101.25	-56.25	3.75	-86.25	-206.25	-172.5	-157.5	-112.5
753	-56.25	-33.75	-22.5	-108.75	-225	-202.5	-187.5	-138.75
754	3.75	-52.5	-26.25	-116.25	-232.5	-221.25	-206.25	-150
755	3.75	-93.75	-15	-108.75	-228.75	-217.5	-206.25	-150
756	-22.5	-93.75	0	-93.75	-217.5	-198.75	-183.75	-131.25
757	-18.75	-75	7.5	-90	-213.75	-191.25	-172.5	-116.25
758	-22.5	-90	-3.75	-93.75	-217.5	-198.75	-176.25	-120
759	-52.5	-108.75	3.75	-86.25	-210	-191.25	-168.75	-120
760	-82.5	-75	22.5	-75	-195	-168.75	-153.75	-108.75
761	-108.75	-67.5	26.25	-63.75	-180	-153.75	-142.5	-97.5
762	-142.5	-93.75	30	-60	-172.5	-146.25	-135	-90
763	-165	-101.25	30	-60	-172.5	-150	-135	-90
764	-135	-56.25	18.75	-71.25	-187.5	-161.25	-150	-105
765	-41.25	-18.75	0	-90	-206.25	-183.75	-168.75	-116.25
766	52.5	-63.75	0	-90	-206.25	-187.5	-165	-105
767	30	-146.25	11.25	-75	-195	-176.25	-150	-93.75
768	-41.25	-183.75	11.25	-82.5	-198.75	-180	-157.5	-105
769	-75	-198.75	3.75	-93.75	-210	-191.25	-172.5	-120
770	-45	-168.75	0	-97.5	-217.5	-195	-180	-127.5
771	3.75	-67.5	22.5	-78.75	-195	-176.25	-157.5	-105
772	-18.75	-15	37.5	-63.75	-180	-153.75	-138.75	-90
773	-112.5	-60	41.25	-60	-172.5	-142.5	-127.5	-82.5
774	-142.5	-93.75	45	-56.25	-165	-131.25	-120	-75
775	-86.25	-67.5	37.5	-60	-168.75	-135	-123.75	-75
776	-33.75	-18.75	18.75	-71.25	-176.25	-146.25	-131.25	-78.75
777	26.25	-26.25	-7.5	-93.75	-198.75	-165	-150	-93.75
778	56.25	-86.25	-26.25	-112.5	-221.25	-191.25	-172.5	-112.5
779	7.5	-112.5	-22.5	-116.25	-225	-195	-176.25	-116.25
780	-37.5	-82.5	-11.25	-108.75	-221.25	-191.25	-172.5	-120
781	-48.75	-60	-18.75	-116.25	-228.75	-198.75	-180	-127.5
782	-45	-52.5	-26.25	-123.75	-240	-206.25	-183.75	-131.25
783	-33.75	-41.25	-15	-112.5	-225	-187.5	-165	-116.25
784	-67.5	-45	3.75	-93.75	-198.75	-165	-146.25	-101.25
785	-142.5	-78.75	11.25	-90	-198.75	-168.75	-153.75	-105
786	-172.5	-123.75	7.5	-93.75	-206.25	-172.5	-157.5	-108.75
787	-142.5	-135	22.5	-78.75	-191.25	-157.5	-142.5	-93.75
788	-90	-86.25	37.5	-63.75	-172.5	-142.5	-131.25	-78.75
789	-33.75	-82.5	18.75	-75	-187.5	-165	-153.75	-101.25
790	22.5	-123.75	-22.5	-108.75	-221.25	-198.75	-183.75	-123.75
791	33.75	-131.25	-18.75	-112.5	-225	-198.75	-176.25	-116.25
792	-11.25	-131.25	0	-101.25	-213.75	-183.75	-161.25	-105
793	-41.25	-131.25	0	-101.25	-217.5	-187.5	-165	-112.5
794	-41.25	-131.25	-7.5	-116.25	-232.5	-202.5	-180	-127.5
795	-63.75	-138.75	-3.75	-112.5	-228.75	-195	-176.25	-123.75
796	-112.5	-123.75	7.5	-101.25	-213.75	-180	-165	-116.25
797	-153.75	-90	11.25	-97.5	-210	-172.5	-157.5	-108.75
798	-153.75	-60	7.5	-101.25	-206.25	-165	-150	-105
799	-123.75	-48.75	-3.75	-112.5	-213.75	-176.25	-168.75	-120
800	-93.75	-52.5	-15	-120	-228.75	-198.75	-195	-142.5
801	-48.75	-75	-26.25	-135	-243.75	-213.75	-198.75	-142.5
802	7.5	-90	-41.25	-150	-258.75	-228.75	-206.25	-142.5
803	15	-71.25	-52.5	-161.25	-273.75	-243.75	-225	-157.5
804	-33.75	-97.5	-48.75	-157.5	-273.75	-236.25	-213.75	-153.75
805	-60	-123.75	-41.25	-153.75	-266.25	-228.75	-206.25	-150
806	-22.5	-71.25	-41.25	-150	-258.75	-221.25	-202.5	-146.25
807	-7.5	-41.25	-33.75	-142.5	-247.5	-210	-187.5	-135
808	-60	-75	-22.5	-131.25	-236.25	-198.75	-176.25	-127.5
809	-112.5	-78.75	-3.75	-116.25	-221.25	-176.25	-161.25	-112.5
810	-131.25	-90	7.5	-105	-206.25	-165	-153.75	-105
811	-150	-146.25	11.25	-97.5	-198.75	-161.25	-150	-101.25
812	-146.25	-165	-7.5	-112.5	-213.75	-172.5	-161.25	-108.75
813	-78.75	-168.75	-33.75	-135	-240	-198.75	-180	-123.75
814	-7.5	-195	-48.75	-146.25	-251.25	-213.75	-191.25	-127.5
815	3.75	-191.25	-41.25	-138.75	-247.5	-210	-191.25	-127.5
816	-22.5	-168.75	-26.25	-131.25	-240	-206.25	-187.5	-127.5
817	-26.25	-142.5	-11.25	-116.25	-228.75	-198.75	-180	-116.25
818	-7.5	-108.75	0	-105	-213.75	-183.75	-161.25	-93.75
819	-18.75	-101.25	-3.75	-108.75	-217.5	-180	-157.5	-93.75
820	-82.5	-108.75	0	-105	-210	-172.5	-153.75	-101.25
821	-127.5	-105	11.25	-97.5	-198.75	-153.75	-142.5	-97.5
822	-142.5	-116.25	11.25	-101.25	-198.75	-157.5	-146.25	-97.5
823	-135	-146.25	-3.75	-112.5	-213.75	-172.5	-161.25	-105
824	-146.25	-176.25	-26.25	-131.25	-232.5	-195	-180	-120
825	-67.5	-142.5	-41.25	-150	-255	-213.75	-195	-135
826	78.75	-71.25	-33.75	-142.5	-247.5	-210	-187.5	-123.75
827	75	-82.5	-33.75	-142.5	-247.5	-210	-187.5	-127.5
828	-22.5	-131.25	-33.75	-146.25	-251.25	-206.25	-183.75	-127.5
829	-56.25	-138.75	-33.75	-142.5	-247.5	-202.5	-183.75	-131.25
830	-63.75	-138.75	-41.25	-150	-255	-213.75	-198.75	-150
831	-71.25	-127.5	-37.5	-146.25	-251.25	-210	-195	-146.25
832	-82.5	-75	-18.75	-131.25	-232.5	-191.25	-176.25	-123.75
833	-108.75	-52.5	-7.5	-123.75	-228.75	-183.75	-172.5	-120
834	-108.75	-41.25	-3.75	-116.25	-221.25	-180	-168.75	-120
835	-93.75	-15	-3.75	-112.5	-213.75	-176.25	-168.75	-112.5
836	-90	-11.25	0	-112.5	-217.5	-180	-176.25	-116.25
837	-56.25	-26.25	-18.75	-135	-240	-206.25	-198.75	-138.75
838	-22.5	-75	-33.75	-153.75	-262.5	-228.75	-213.75	-150
839	-48.75	-127.5	-30	-150	-258.75	-221.25	-202.5	-135
840	-63.75	-123.75	-7.5	-127.5	-232.5	-198.75	-183.75	-120
841	-3.75	-67.5	7.5	-116.25	-225	-187.5	-176.25	-123.75
842	15	-48.75	26.25	-105	-217.5	-180	-168.75	-116.25
843	-22.5	-60	52.5	-86.25	-198.75	-165	-150	-97.5
844	-60	-22.5	52.5	-82.5	-195	-161.25	-150	-101.25
845	-112.5	22.5	52.5	-78.75	-195	-157.5	-150	-101.25
846	-131.25	26.25	48.75	-86.25	-195	-157.5	-153.75	-105
847	-108.75	0	45	-86.25	-195	-157.5	-153.75	-105
848	-93.75	-26.25	52.5	-75	-183.75	-150	-146.25	-101.25
849	-45	-48.75	60	-60	-168.75	-135	-131.25	-82.5
850	26.25	-71.25	56.25	-63.75	-172.5	-138.75	-131.25	-78.75
851	15	-93.75	56.25	-67.5	-176.25	-138.75	-127.5	-71.25
852	-22.5	-105	71.25	-56.25	-165	-123.75	-105	-56.25
853	-22.5	-93.75	71.25	-52.5	-161.25	-116.25	-97.5	-48.75
854	-11.25	-67.5	56.25	-60	-165	-120	-101.25	-56.25
855	-15	-45	45	-60	-161.25	-120	-105	-60
856	-45	-15	33.75	-60	-161.25	-123.75	-116.25	-63.75
857	-67.5	37.5	18.75	-60	-157.5	-120	-112.5	-60
858	-78.75	56.25	3.75	-63.75	-153.75	-112.5	-108.75	-60
859	-60	41.25	-7.5	-71.25	-157.5	-112.5	-108.75	-63.75
860	-26.25	45	-11.25	-71.25	-153.75	-105	-101.25	-52.5
861	11.25	30	-33.75	-93.75	-176.25	-127.5	-116.25	-63.75
862	75	-33.75	-63.75	-127.5	-210	-165	-150	-97.5
863	67.5	-93.75	-71.25	-135	-221.25	-176.25	-161.25	-105
864	18.75	-101.25	-60	-123.75	-210	-161.25	-142.5	-90
865	3.75	-90	-60	-127.5	-213.75	-161.25	-138.75	-86.25
866	-7.5	-97.5	-71.25	-142.5	-228.75	-176.25	-153.75	-97.5
867	-33.75	-116.25	-71.25	-146.25	-236.25	-183.75	-161.25	-105
868	-63.75	-97.5	-45	-123.75	-213.75	-157.5	-142.5	-90
869	-93.75	-60	-22.5	-101.25	-187.5	-138.75	-131.25	-86.25
870	-108.75	-63.75	-22.5	-105	-191.25	-146.25	-146.25	-97.5
871	-101.25	-86.25	-33.75	-116.25	-206.25	-161.25	-161.25	-108.75
872	-78.75	-63.75	-33.75	-120	-206.25	-157.5	-157.5	-105
873	-18.75	-33.75	-45	-131.25	-217.5	-165	-165	-108.75
874	56.25	-41.25	-56.25	-146.25	-236.25	-191.25	-187.5	-127.5
875	56.25	-60	-60	-150	-243.75	-202.5	-195	-138.75
876	0	-82.5	-52.5	-142.5	-236.25	-191.25	-183.75	-131.25
877	-37.5	-120	-56.25	-150	-243.75	-191.25	-187.5	-138.75
878	-52.5	-142.5	-56.25	-157.5	-247.5	-195	-187.5	-142.5
879	-41.25	-127.5	-52.5	-153.75	-243.75	-191.25	-180	-131.25
880	-63.75	-101.25	-37.5	-138.75	-225	-176.25	-168.75	-120
881	-120	-97.5	-26.25	-127.5	-213.75	-161.25	-161.25	-120
882	-123.75	-93.75	-30	-131.25	-217.5	-168.75	-168.75	-123.75
883	-90	-90	-52.5	-153.75	-243.75	-195	-191.25	-142.5
884	-86.25	-86.25	-67.5	-168.75	-258.75	-210	-206.25	-150
885	-63.75	-78.75	-82.5	-183.75	-273.75	-221.25	-217.5	-161.25
886	-18.75	-86.25	-93.75	-191.25	-288.75	-240	-228.75	-172.5
887	-3.75	-112.5	-82.5	-187.5	-281.25	-232.5	-221.25	-165
888	-41.25	-153.75	-60	-168.75	-258.75	-213.75	-206.25	-157.5
889	-56.25	-168.75	-48.75	-157.5	-251.25	-206.25	-202.5	-157.5
890	-45	-165	-45	-153.75	-243.75	-195	-191.25	-146.25
891	-60	-180	-41.25	-146.25	-240	-187.5	-180	-131.25
892	-101.25	-165	-37.5	-142.5	-232.5	-180	-172.5	-123.75
893	-146.25	-142.5	-37.5	-146.25	-232.5	-180	-176.25	-131.25
894	-183.75	-146.25	-48.75	-150	-236.25	-183.75	-187.5	-146.25
895	-180	-157.5	-63.75	-165	-247.5	-198.75	-202.5	-161.25
896	-123.75	-127.5	-63.75	-161.25	-243.75	-191.25	-195	-146.25
897	-26.25	-75	-60	-157.5	-240	-183.75	-183.75	-135
898	63.75	-60	-63.75	-157.5	-240	-183.75	-180	-135
899	52.5	-101.25	-67.5	-161.25	-243.75	-191.25	-187.5	-142.5
900	-18.75	-168.75	-60	-153.75	-240	-191.25	-191.25	-142.5
901	-52.5	-210	-48.75	-142.5	-228.75	-180	-176.25	-131.25
902	-56.25	-206.25	-45	-142.5	-228.75	-180	-176.25	-131.25
903	-63.75	-183.75	-52.5	-153.75	-240	-191.25	-187.5	-142.5
904	-90	-161.25	-33.75	-135	-221.25	-176.25	-172.5	-123.75
905	-112.5	-146.25	-11.25	-108.75	-202.5	-157.5	-153.75	-112.5
906	-105	-146.25	3.75	-90	-198.75	-157.5	-165	-127.5
907	-67.5	-153.75	26.25	-67.5	-202.5	-183.75	-198.75	-165
908	-52.5	-157.5	78.75	-18.75	-198.75	-206.25	-228.75	-198.75
909	-41.25	-206.25	135	33.75	-210	-247.5	-281.25	-247.5
910	18.75	-273.75	187.5	78.75	-221.25	-296.25	-330	-292.5
911	41.25	-281.25	251.25	142.5	-206.25	-303.75	-341.25	-300
912	26.25	-217.5	322.5	236.25	-150	-270	-315	-273.75
913	45	-138.75	386.25	341.25	-67.5	-210	-258.75	-228.75
914	75	-112.5	435	431.25	11.25	-150	-202.5	-176.25
915	116.25	-82.5	465	510	90	-75	-138.75	-116.25
916	127.5	7.5	487.5	588.75	180	18.75	-52.5	-45
917	131.25	123.75	521.25	675	281.25	127.5	48.75	41.25
918	195	262.5	540	776.25	401.25	251.25	161.25	142.5
919	262.5	386.25	491.25	806.25	498.75	367.5	270	240
920	292.5	483.75	412.5	761.25	562.5	476.25	386.25	341.25
921	352.5	603.75	300	663.75	611.25	592.5	510	461.25
922	457.5	731.25	176.25	577.5	678.75	720	652.5	592.5
923	491.25	866.25	131.25	573.75	802.5	900	840	753.75
924	487.5	1072.5	63.75	525	911.25	1095	1053.75	948.75
925	513.75	1335	-123.75	333.75	945	1263.75	1271.25	1166.25
926	543.75	1526.25	-356.25	60	933.75	1406.25	1466.25	1365
927	532.5	1560	-562.5	-210	930	1541.25	1631.25	1515
928	468.75	1552.5	-727.5	-416.25	963.75	1706.25	1803.75	1653.75
929	382.5	1571.25	-817.5	-517.5	1038.75	1867.5	1946.25	1740
930	311.25	1545	-828.75	-540	1128.75	1980	2017.5	1751.25
931	285	1488.75	-870	-600	1166.25	2032.5	2036.25	1728.75
932	232.5	1406.25	-975	-742.5	1098.75	1972.5	1965	1650
933	180	1237.5	-1038.75	-881.25	911.25	1743.75	1736.25	1447.5
934	135	990	-1016.25	-956.25	652.5	1376.25	1372.5	1143.75
935	56.25	742.5	-982.5	-1038.75	337.5	956.25	993.75	855
936	-45	502.5	-960	-1132.5	-7.5	532.5	630	592.5
937	-138.75	262.5	-903.75	-1192.5	-311.25	161.25	303.75	348.75
938	-161.25	142.5	-828.75	-1185	-476.25	-67.5	78.75	165
939	-146.25	120	-746.25	-1087.5	-480	-135	-22.5	56.25
940	-202.5	30	-682.5	-960	-416.25	-135	-67.5	-11.25
941	-258.75	-41.25	-645	-836.25	-341.25	-97.5	-67.5	-33.75
942	-240	-30	-596.25	-716.25	-273.75	-48.75	-33.75	-15
943	-191.25	-3.75	-547.5	-637.5	-258.75	-41.25	-26.25	-7.5
944	-153.75	7.5	-495	-562.5	-258.75	-52.5	-33.75	-15
945	-101.25	0	-438.75	-476.25	-236.25	-52.5	-37.5	-22.5
946	-33.75	-11.25	-382.5	-386.25	-195	-41.25	-30	-15
947	-7.5	11.25	-333.75	-303.75	-153.75	-22.5	-18.75	-11.25
948	-15	52.5	-281.25	-240	-120	-7.5	-11.25	-7.5
949	-3.75	56.25	-225	-187.5	-93.75	3.75	-11.25	-15
950	15	15	-172.5	-135	-71.25	11.25	-7.5	-15
951	11.25	-15	-116.25	-82.5	-37.5	33.75	15	7.5
952	-33.75	-15	-75	-52.5	-18.75	48.75	26.25	18.75
953	-101.25	-26.25	-56.25	-37.5	-18.75	45	15	7.5
954	-138.75	-30	-56.25	-37.5	-33.75	26.25	-3.75	-15
955	-105	-15	-56.25	-37.5	-45	7.5	-22.5	-30
956	-41.25	0	-41.25	-26.25	-45	3.75	-26.25	-26.25
957	18.75	-7.5	-30	-18.75	-48.75	-7.5	-37.5	-37.5
958	75	-37.5	-41.25	-33.75	-75	-45	-75	-63.75
959	75	-45	-41.25	-37.5	-86.25	-63.75	-93.75	-78.75
960	45	-15	-26.25	-22.5	-82.5	-60	-90	-78.75
961	22.5	-7.5	-30	-30	-93.75	-71.25	-97.5	-90
962	11.25	-18.75	-30	-26.25	-93.75	-67.5	-93.75	-78.75
963	-3.75	-60	-26.25	-15	-86.25	-60	-86.25	-71.25
964	-45	-86.25	-7.5	0	-67.5	-41.25	-71.25	-60
965	-82.5	-71.25	7.5	18.75	-52.5	-18.75	-48.75	-45
966	-97.5	-45	11.25	18.75	-48.75	-15	-52.5	-52.5
967	-97.5	-37.5	11.25	18.75	-52.5	-22.5	-63.75	-67.5
968	-63.75	-33.75	7.5	15	-56.25	-30	-78.75	-78.75
969	-7.5	-33.75	0	7.5	-67.5	-41.25	-86.25	-82.5
970	60	-56.25	-18.75	-7.5	-90	-63.75	-97.5	-90
971	48.75	-112.5	-22.5	-18.75	-105	-78.75	-105	-97.5
972	26.25	-108.75	-3.75	-3.75	-90	-60	-90	-86.25
973	41.25	-52.5	-3.75	3.75	-78.75	-52.5	-86.25	-86.25
974	60	-15	-11.25	7.5	-82.5	-56.25	-93.75	-90
975	60	0	-3.75	22.5	-71.25	-48.75	-82.5	-78.75
976	11.25	11.25	11.25	33.75	-60	-33.75	-67.5	-60
977	-45	15	22.5	45	-45	-22.5	-56.25	-56.25
978	-41.25	22.5	22.5	52.5	-37.5	-15	-56.25	-56.25
979	-30	7.5	11.25	48.75	-45	-18.75	-60	-60
980	-33.75	-30	3.75	41.25	-48.75	-22.5	-63.75	-63.75
981	-15	-63.75	-11.25	26.25	-60	-33.75	-75	-67.5
982	56.25	-63.75	-30	15	-75	-52.5	-90	-78.75
983	82.5	-52.5	-26.25	22.5	-71.25	-52.5	-86.25	-75
984	56.25	-41.25	-18.75	30	-63.75	-41.25	-75	-71.25
985	63.75	-3.75	-22.5	26.25	-67.5	-37.5	-75	-75
986	86.25	7.5	-11.25	41.25	-52.5	-26.25	-67.5	-67.5
987	56.25	-41.25	7.5	63.75	-30	-7.5	-45	-45
988	15	-60	22.5	78.75	-11.25	15	-22.5	-26.25
989	-26.25	-33.75	33.75	90	0	30	-11.25	-15
990	-45	-15	22.5	82.5	-7.5	22.5	-18.75	-26.25
991	-37.5	-18.75	11.25	75	-11.25	15	-26.25	-33.75
992	-11.25	-22.5	11.25	82.5	-3.75	22.5	-18.75	-22.5
993	56.25	-22.5	11.25	86.25	0	26.25	-11.25	-7.5
994	142.5	-26.25	-7.5	71.25	-15	11.25	-22.5	-15
995	142.5	-33.75	-18.75	60	-26.25	-3.75	-41.25	-37.5
996	75	-45	-7.5	71.25	-18.75	3.75	-37.5	-37.5
997	37.5	-60	-3.75	71.25	-18.75	3.75	-37.5	-41.25
998	22.5	-75	-7.5	67.5	-26.25	-7.5	-45	-48.75
999	30	-60	-3.75	71.25	-22.5	0	-41.25	-45
1000	52.5	18.75	22.5	105	7.5	30	-15	-18.75
1001	30	75	41.25	123.75	30	56.25	7.5	-3.75
1002	-26.25	48.75	26.25	116.25	22.5	48.75	3.75	-7.5
1003	-41.25	45	-11.25	86.25	0	22.5	-26.25	-37.5
1004	-3.75	82.5	-18.75	86.25	3.75	26.25	-30	-41.25
1005	90	112.5	-3.75	105	18.75	33.75	-18.75	-30
1006	176.25	86.25	-3.75	108.75	18.75	33.75	-15	-18.75
1007	165	0	-3.75	116.25	26.25	37.5	-3.75	-7.5
1008	116.25	-48.75	7.5	123.75	33.75	48.75	11.25	7.5
1009	101.25	-41.25	11.25	127.5	37.5	63.75	22.5	18.75
1010	101.25	-7.5	3.75	127.5	37.5	67.5	26.25	18.75
1011	86.25	3.75	0	127.5	41.25	71.25	30	18.75
1012	41.25	7.5	11.25	142.5	52.5	78.75	37.5	22.5
1013	18.75	45	18.75	153.75	63.75	86.25	41.25	30
1014	26.25	63.75	22.5	165	78.75	101.25	56.25	45
1015	41.25	52.5	30	176.25	90	112.5	63.75	52.5
1016	60	41.25	37.5	187.5	101.25	120	71.25	56.25
1017	108.75	18.75	18.75	176.25	86.25	105	56.25	41.25
1018	168.75	-15	-11.25	150	56.25	75	26.25	15
1019	161.25	-18.75	-18.75	142.5	41.25	60	15	3.75
1020	116.25	-7.5	-11.25	150	48.75	63.75	18.75	7.5
1021	120	18.75	0	157.5	60	75	30	18.75
1022	142.5	37.5	3.75	168.75	67.5	82.5	41.25	30
1023	120	11.25	7.5	172.5	71.25	93.75	48.75	37.5
1024	97.5	26.25	15	183.75	86.25	112.5	63.75	52.5
1025	86.25	78.75	30	202.5	108.75	135	86.25	67.5
1026	67.5	90	26.25	202.5	112.5	138.75	90	63.75
1027	90	93.75	7.5	195	105	131.25	82.5	60
1028	112.5	97.5	7.5	198.75	105	131.25	82.5	60
1029	153.75	116.25	0	191.25	97.5	120	75	56.25
1030	225	127.5	-30	161.25	63.75	86.25	45	30
1031	251.25	123.75	-41.25	153.75	48.75	75	33.75	22.5
1032	198.75	120	-37.5	153.75	48.75	78.75	41.25	22.5
1033	153.75	112.5	-37.5	150	48.75	75	41.25	26.25
1034	176.25	138.75	-41.25	150	45	71.25	37.5	22.5
1035	202.5	153.75	-33.75	161.25	52.5	82.5	48.75	30
1036	161.25	90	-15	176.25	67.5	93.75	60	45
1037	105	71.25	7.5	191.25	82.5	108.75	75	60
1038	108.75	120	0	191.25	86.25	116.25	78.75	67.5
1039	138.75	146.25	-7.5	191.25	90	123.75	90	75
1040	135	112.5	11.25	206.25	101.25	131.25	97.5	86.25
1041	168.75	86.25	18.75	213.75	101.25	131.25	97.5	93.75
1042	240	75	7.5	198.75	82.5	112.5	86.25	78.75
1043	243.75	45	3.75	187.5	71.25	97.5	63.75	56.25
1044	191.25	37.5	7.5	191.25	71.25	97.5	63.75	48.75
1045	183.75	75	7.5	187.5	63.75	93.75	63.75	56.25
1046	206.25	101.25	-3.75	176.25	48.75	78.75	56.25	48.75
1047	198.75	108.75	-7.5	168.75	41.25	71.25	48.75	41.25
1048	157.5	116.25	3.75	180	52.5	86.25	63.75	56.25
1049	112.5	142.5	15	195	67.5	105	86.25	78.75
1050	97.5	165	15	191.25	67.5	105	86.25	75
1051	108.75	146.25	11.25	183.75	63.75	105	78.75	71.25
1052	105	86.25	15	183.75	60	105	78.75	67.5
1053	138.75	33.75	11.25	176.25	52.5	90	67.5	60
1054	240	11.25	3.75	168.75	37.5	75	52.5	56.25
1055	258.75	-3.75	15	176.25	33.75	67.5	52.5	60
1056	221.25	11.25	30	183.75	41.25	75	60	63.75
1057	210	30	33.75	180	41.25	78.75	63.75	63.75
1058	206.25	45	26.25	168.75	26.25	67.5	52.5	56.25
1059	187.5	60	30	165	18.75	60	41.25	41.25
1060	135	78.75	37.5	168.75	22.5	60	41.25	41.25
1061	63.75	116.25	33.75	165	22.5	63.75	45	41.25
1062	45	135	30	165	22.5	67.5	45	45
1063	105	138.75	41.25	172.5	33.75	75	52.5	52.5
1064	150	135	67.5	191.25	52.5	90	63.75	67.5
1065	172.5	112.5	63.75	180	45	78.75	52.5	60
1066	195	63.75	33.75	142.5	3.75	33.75	11.25	22.5
1067	187.5	26.25	22.5	127.5	-22.5	3.75	-15	0
1068	168.75	41.25	56.25	150	0	22.5	0	7.5
1069	165	45	78.75	161.25	15	37.5	11.25	15
1070	146.25	18.75	71.25	153.75	7.5	33.75	7.5	11.25
1071	108.75	7.5	63.75	138.75	-3.75	18.75	-7.5	-3.75
1072	48.75	3.75	67.5	138.75	0	22.5	-7.5	-7.5
1073	7.5	33.75	75	138.75	7.5	33.75	-3.75	-7.5
1074	18.75	78.75	78.75	142.5	15	41.25	3.75	-3.75
1075	48.75	93.75	71.25	131.25	3.75	33.75	0	-11.25
1076	33.75	71.25	52.5	108.75	-15	11.25	-22.5	-30
1077	52.5	60	45	97.5	-22.5	3.75	-30	-37.5
1078	138.75	60	45	90	-33.75	-11.25	-45	-48.75
1079	153.75	41.25	45	78.75	-48.75	-26.25	-60	-63.75
1080	97.5	37.5	45	75	-45	-18.75	-52.5	-60
1081	63.75	41.25	30	56.25	-56.25	-22.5	-52.5	-63.75
1082	41.25	26.25	22.5	48.75	-60	-30	-60	-67.5
1083	26.25	3.75	26.25	48.75	-60	-33.75	-67.5	-71.25
1084	-3.75	0	45	63.75	-45	-18.75	-52.5	-56.25
1085	-11.25	15	86.25	97.5	-7.5	22.5	-11.25	-18.75
1086	-7.5	11.25	105	112.5	7.5	45	3.75	-7.5
1087	3.75	11.25	93.75	97.5	-7.5	26.25	-15	-26.25
1088	11.25	15	71.25	75	-22.5	7.5	-37.5	-45
1089	26.25	0	56.25	63.75	-30	-3.75	-45	-48.75
1090	71.25	-41.25	33.75	45	-48.75	-18.75	-56.25	-56.25
1091	90	-86.25	26.25	26.25	-67.5	-41.25	-75	-75
1092	48.75	-90	37.5	26.25	-67.5	-41.25	-75	-71.25
1093	18.75	-71.25	45	26.25	-67.5	-45	-75	-71.25
1094	11.25	-75	41.25	22.5	-75	-52.5	-86.25	-82.5
1095	-3.75	-82.5	41.25	18.75	-78.75	-52.5	-86.25	-90
1096	-18.75	-56.25	48.75	30	-63.75	-33.75	-71.25	-75
1097	-45	-7.5	60	41.25	-45	-11.25	-52.5	-56.25
1098	-63.75	33.75	56.25	33.75	-45	-7.5	-45	-48.75
1099	-45	56.25	37.5	18.75	-56.25	-15	-56.25	-63.75
1100	-30	71.25	30	7.5	-63.75	-26.25	-67.5	-75
1101	0	63.75	26.25	3.75	-71.25	-33.75	-75	-78.75
1102	52.5	3.75	15	-7.5	-82.5	-45	-86.25	-90
1103	52.5	-63.75	11.25	-15	-93.75	-60	-97.5	-97.5
1104	7.5	-97.5	11.25	-15	-93.75	-63.75	-97.5	-101.25
1105	-7.5	-90	18.75	-11.25	-90	-56.25	-86.25	-97.5
1106	7.5	-60	18.75	-11.25	-90	-56.25	-86.25	-93.75
1107	0	-56.25	15	-15	-93.75	-60	-93.75	-97.5
1108	-37.5	-75	33.75	0	-75	-45	-78.75	-86.25
1109	-67.5	-71.25	56.25	22.5	-52.5	-22.5	-60	-63.75
1110	-82.5	-52.5	52.5	22.5	-48.75	-18.75	-56.25	-56.25
1111	-71.25	-56.25	41.25	15	-56.25	-22.5	-60	-63.75
1112	-63.75	-63.75	30	7.5	-60	-26.25	-67.5	-75
1113	-48.75	-78.75	15	-7.5	-75	-45	-82.5	-90
1114	22.5	-93.75	0	-22.5	-93.75	-63.75	-101.25	-101.25
1115	67.5	-86.25	0	-22.5	-93.75	-67.5	-101.25	-101.25
1116	45	-60	11.25	-11.25	-82.5	-56.25	-90	-90
1117	41.25	-15	22.5	3.75	-71.25	-45	-78.75	-82.5
1118	37.5	3.75	26.25	11.25	-60	-30	-67.5	-71.25
1119	7.5	-11.25	33.75	15	-52.5	-26.25	-63.75	-63.75
1120	-56.25	-45	33.75	15	-52.5	-22.5	-60	-63.75
1121	-116.25	-75	41.25	22.5	-41.25	-11.25	-56.25	-63.75
1122	-127.5	-63.75	45	30	-33.75	-3.75	-52.5	-63.75
1123	-105	-18.75	37.5	22.5	-41.25	-15	-63.75	-67.5
1124	-33.75	60	33.75	18.75	-48.75	-22.5	-71.25	-71.25
1125	26.25	82.5	11.25	0	-67.5	-45	-90	-82.5
1126	45	37.5	-26.25	-33.75	-101.25	-86.25	-127.5	-112.5
1127	48.75	-7.5	-26.25	-30	-101.25	-82.5	-116.25	-105
1128	22.5	-52.5	3.75	-3.75	-67.5	-45	-75	-71.25
1129	15	-63.75	30	22.5	-37.5	-7.5	-41.25	-45
1130	37.5	-45	33.75	26.25	-30	7.5	-30	-41.25
1131	33.75	-52.5	33.75	33.75	-18.75	15	-26.25	-45
1132	-11.25	-67.5	41.25	45	-7.5	26.25	-18.75	-41.25
1133	-41.25	-33.75	52.5	52.5	0	41.25	-3.75	-26.25
1134	-67.5	7.5	45	41.25	-7.5	33.75	-11.25	-30
1135	-71.25	15	30	26.25	-26.25	11.25	-37.5	-52.5
1136	-78.75	3.75	15	11.25	-45	-18.75	-63.75	-75
1137	-45	7.5	7.5	3.75	-60	-37.5	-82.5	-86.25
1138	75	37.5	-15	-18.75	-78.75	-56.25	-101.25	-97.5
1139	108.75	67.5	-30	-30	-93.75	-75	-112.5	-105
1140	37.5	75	-22.5	-26.25	-86.25	-63.75	-105	-101.25
1141	-3.75	52.5	-15	-18.75	-75	-48.75	-90	-90
1142	-11.25	0	-7.5	-11.25	-71.25	-37.5	-78.75	-78.75
1143	-7.5	-30	0	0	-52.5	-18.75	-56.25	-63.75
1144	-33.75	-30	15	18.75	-26.25	15	-26.25	-41.25
1145	-45	-48.75	48.75	56.25	15	60	11.25	-7.5
1146	-11.25	-45	71.25	78.75	37.5	82.5	30	3.75
1147	3.75	-33.75	60	71.25	30	75	26.25	0
1148	-11.25	-48.75	45	56.25	15	56.25	7.5	-3.75
1149	-3.75	-63.75	26.25	33.75	-11.25	30	-18.75	-22.5
1150	60	-45	7.5	15	-33.75	3.75	-41.25	-45
1151	97.5	-30	3.75	3.75	-45	-7.5	-48.75	-52.5
1152	56.25	-30	15	11.25	-33.75	7.5	-33.75	-37.5
1153	33.75	-11.25	22.5	22.5	-26.25	15	-26.25	-33.75
1154	37.5	7.5	15	18.75	-30	7.5	-33.75	-45
1155	15	7.5	7.5	7.5	-41.25	-7.5	-52.5	-56.25
1156	-26.25	11.25	11.25	7.5	-37.5	-7.5	-52.5	-56.25
1157	-60	18.75	18.75	18.75	-26.25	7.5	-41.25	-45
1158	-75	33.75	22.5	22.5	-18.75	18.75	-33.75	-41.25
1159	-56.25	45	22.5	22.5	-22.5	15	-37.5	-41.25
1160	-26.25	37.5	26.25	26.25	-15	18.75	-33.75	-30
1161	-3.75	11.25	15	15	-22.5	15	-37.5	-30
1162	52.5	-30	-3.75	-3.75	-48.75	-3.75	-48.75	-45
1163	82.5	-52.5	0	0	-45	-3.75	-41.25	-37.5
1164	52.5	-37.5	15	7.5	-33.75	7.5	-26.25	-26.25
1165	30	-30	7.5	0	-45	-3.75	-41.25	-41.25
1166	22.5	-26.25	-3.75	-7.5	-52.5	-15	-52.5	-56.25
1167	7.5	-7.5	-3.75	-11.25	-48.75	-15	-56.25	-60
1168	-26.25	0	-3.75	-11.25	-48.75	-11.25	-52.5	-52.5
1169	-60	22.5	7.5	0	-37.5	3.75	-41.25	-45
1170	-82.5	41.25	11.25	0	-30	15	-33.75	-41.25
1171	-75	30	7.5	0	-26.25	18.75	-33.75	-41.25
1172	-63.75	7.5	-3.75	-3.75	-33.75	15	-37.5	-45
1173	-22.5	-11.25	-7.5	-7.5	-37.5	7.5	-41.25	-48.75
1174	82.5	-15	0	-3.75	-37.5	3.75	-45	-45
1175	120	-30	15	3.75	-33.75	3.75	-41.25	-41.25
1176	71.25	-33.75	18.75	0	-41.25	3.75	-37.5	-41.25
1177	41.25	-22.5	11.25	-11.25	-56.25	-11.25	-52.5	-56.25
1178	41.25	-15	0	-22.5	-63.75	-22.5	-63.75	-63.75
1179	37.5	3.75	7.5	-15	-60	-22.5	-60	-56.25
1180	-3.75	18.75	0	-26.25	-71.25	-30	-67.5	-63.75
1181	-63.75	26.25	7.5	-22.5	-63.75	-15	-56.25	-60
1182	-75	30	11.25	-7.5	-45	3.75	-45	-48.75
1183	-60	22.5	0	-15	-48.75	0	-52.5	-52.5
1184	-60	30	-18.75	-26.25	-60	-15	-63.75	-56.25
1185	-41.25	33.75	-37.5	-48.75	-82.5	-37.5	-86.25	-78.75
1186	33.75	26.25	-60	-71.25	-108.75	-63.75	-108.75	-101.25
1187	71.25	15	-48.75	-67.5	-105	-60	-105	-93.75
1188	48.75	-15	-30	-45	-82.5	-37.5	-78.75	-71.25
1189	37.5	-56.25	-7.5	-30	-63.75	-15	-56.25	-56.25
1190	52.5	-86.25	3.75	-18.75	-52.5	-3.75	-45	-45
1191	26.25	-108.75	7.5	-11.25	-52.5	3.75	-41.25	-45
1192	-67.5	-116.25	15	-11.25	-52.5	0	-45	-48.75
1193	-131.25	-86.25	26.25	0	-41.25	7.5	-41.25	-41.25
1194	-131.25	-33.75	15	-7.5	-45	-3.75	-52.5	-48.75
1195	-90	15	7.5	-15	-56.25	-11.25	-63.75	-52.5
1196	-3.75	67.5	18.75	0	-41.25	3.75	-45	-33.75
1197	45	48.75	11.25	-7.5	-45	-3.75	-48.75	-41.25
1198	75	-22.5	-15	-33.75	-75	-33.75	-75	-67.5
1199	101.25	-56.25	-26.25	-48.75	-93.75	-48.75	-93.75	-82.5
1200	71.25	-78.75	-15	-37.5	-82.5	-37.5	-78.75	-71.25
1201	22.5	-93.75	-7.5	-33.75	-75	-22.5	-63.75	-60
1202	11.25	-82.5	-3.75	-37.5	-78.75	-26.25	-63.75	-63.75
1203	11.25	-56.25	-15	-45	-86.25	-37.5	-71.25	-71.25
1204	-18.75	-22.5	-15	-45	-82.5	-30	-67.5	-67.5
1205	-48.75	22.5	0	-33.75	-67.5	-18.75	-60	-60
1206	-75	56.25	-3.75	-37.5	-71.25	-18.75	-63.75	-60
1207	-86.25	56.25	-18.75	-48.75	-82.5	-33.75	-75	-71.25
1208	-71.25	33.75	-22.5	-52.5	-90	-41.25	-82.5	-75
1209	-26.25	30	-30	-52.5	-90	-45	-86.25	-78.75
1210	33.75	18.75	-41.25	-67.5	-105	-60	-97.5	-86.25
1211	41.25	-45	-37.5	-67.5	-108.75	-60	-93.75	-86.25
1212	-18.75	-105	-22.5	-60	-97.5	-45	-82.5	-82.5
1213	-37.5	-112.5	-18.75	-52.5	-90	-37.5	-82.5	-82.5
1214	-18.75	-105	-30	-60	-93.75	-45	-86.25	-86.25
1215	11.25	-75	-15	-48.75	-82.5	-33.75	-75	-63.75
1216	18.75	-26.25	18.75	-18.75	-52.5	-7.5	-48.75	-37.5
1217	-15	-3.75	18.75	-11.25	-48.75	-7.5	-45	-37.5
1218	-56.25	-11.25	7.5	-18.75	-60	-7.5	-52.5	-48.75
1219	-63.75	-11.25	0	-30	-63.75	-11.25	-60	-60
1220	-56.25	0	0	-26.25	-60	-11.25	-60	-63.75
1221	-22.5	15	-15	-41.25	-75	-30	-75	-78.75
1222	45	18.75	-37.5	-67.5	-101.25	-60	-105	-101.25
1223	60	-11.25	-52.5	-86.25	-127.5	-82.5	-123.75	-116.25
1224	18.75	-30	-37.5	-71.25	-116.25	-67.5	-105	-105
1225	-11.25	-15	-7.5	-45	-90	-41.25	-78.75	-78.75
1226	7.5	33.75	18.75	-26.25	-71.25	-18.75	-52.5	-56.25
1227	52.5	67.5	33.75	-11.25	-48.75	-3.75	-37.5	-41.25
1228	30	60	41.25	0	-37.5	7.5	-30	-33.75
1229	-48.75	48.75	56.25	11.25	-26.25	18.75	-26.25	-30
1230	-97.5	33.75	67.5	15	-22.5	18.75	-26.25	-37.5
1231	-82.5	30	67.5	15	-26.25	11.25	-37.5	-45
1232	-71.25	37.5	63.75	11.25	-30	7.5	-45	-45
1233	-26.25	63.75	48.75	3.75	-41.25	3.75	-41.25	-45
1234	48.75	63.75	26.25	-18.75	-63.75	-15	-56.25	-60
1235	48.75	22.5	18.75	-33.75	-78.75	-26.25	-63.75	-75
1236	3.75	3.75	30	-22.5	-63.75	-15	-52.5	-63.75
1237	-3.75	3.75	45	-7.5	-52.5	-7.5	-45	-52.5
1238	3.75	-15	56.25	3.75	-41.25	-3.75	-41.25	-48.75
1239	7.5	-30	75	22.5	-26.25	7.5	-33.75	-41.25
1240	3.75	-3.75	97.5	45	-11.25	22.5	-18.75	-26.25
1241	-37.5	56.25	105	48.75	0	33.75	-11.25	-18.75
1242	-90	90	101.25	48.75	11.25	52.5	3.75	-7.5
1243	-75	93.75	75	37.5	7.5	56.25	3.75	-7.5
1244	-48.75	93.75	52.5	22.5	-7.5	48.75	0	-7.5
1245	11.25	123.75	37.5	15	-11.25	45	0	-7.5
1246	112.5	123.75	3.75	-7.5	-33.75	18.75	-22.5	-30
1247	142.5	93.75	-22.5	-22.5	-52.5	-7.5	-41.25	-41.25
1248	101.25	78.75	-7.5	-3.75	-37.5	7.5	-22.5	-22.5
1249	86.25	71.25	3.75	11.25	-15	33.75	-3.75	-3.75
1250	75	63.75	-11.25	-3.75	-26.25	26.25	-15	-18.75
1251	60	63.75	-22.5	-15	-37.5	15	-26.25	-30
1252	11.25	45	-22.5	-18.75	-37.5	15	-22.5	-26.25
1253	-48.75	22.5	-26.25	-22.5	-45	15	-26.25	-30
1254	-75	22.5	-30	-26.25	-48.75	11.25	-33.75	-33.75
1255	-48.75	52.5	-37.5	-37.5	-56.25	3.75	-45	-45
1256	-3.75	101.25	-41.25	-41.25	-63.75	-7.5	-52.5	-48.75
1257	45	116.25	-41.25	-41.25	-63.75	-11.25	-56.25	-48.75
1258	112.5	86.25	-48.75	-48.75	-75	-26.25	-67.5	-56.25
1259	120	52.5	-45	-52.5	-78.75	-41.25	-75	-63.75
1260	75	41.25	-33.75	-45	-75	-30	-63.75	-52.5
1261	48.75	7.5	-30	-41.25	-71.25	-18.75	-56.25	-56.25
1262	30	-18.75	-22.5	-41.25	-71.25	-18.75	-56.25	-60
1263	11.25	-22.5	-15	-45	-71.25	-22.5	-52.5	-56.25
1264	-15	-56.25	0	-26.25	-52.5	3.75	-30	-30
1265	-37.5	-63.75	22.5	3.75	-22.5	33.75	0	0
1266	-60	-26.25	15	-7.5	-30	30	-7.5	-11.25
1267	-52.5	0	-3.75	-30	-52.5	7.5	-30	-33.75
1268	-37.5	3.75	-15	-41.25	-60	0	-45	-48.75
1269	-7.5	-7.5	-33.75	-56.25	-78.75	-22.5	-67.5	-63.75
1270	41.25	-33.75	-60	-82.5	-108.75	-60	-105	-97.5
1271	48.75	-60	-71.25	-93.75	-123.75	-86.25	-131.25	-120
1272	3.75	-75	-52.5	-82.5	-116.25	-78.75	-123.75	-112.5
1273	-30	-86.25	-41.25	-78.75	-116.25	-78.75	-116.25	-105
1274	-37.5	-86.25	-45	-86.25	-120	-78.75	-120	-105
1275	-33.75	-82.5	-48.75	-82.5	-112.5	-67.5	-108.75	-101.25
1276	-71.25	-86.25	-41.25	-71.25	-97.5	-52.5	-93.75	-97.5
1277	-78.75	-37.5	-15	-45	-71.25	-22.5	-63.75	-75
1278	-60	15	7.5	-26.25	-52.5	3.75	-41.25	-52.5
1279	-45	22.5	0	-37.5	-56.25	0	-45	-56.25
1280	-33.75	15	-18.75	-56.25	-71.25	-18.75	-63.75	-71.25
1281	-15	18.75	-41.25	-71.25	-90	-33.75	-82.5	-86.25
1282	15	22.5	-71.25	-101.25	-116.25	-67.5	-116.25	-116.25
1283	22.5	-3.75	-82.5	-112.5	-131.25	-86.25	-135	-135
1284	3.75	-37.5	-67.5	-101.25	-123.75	-82.5	-127.5	-131.25
1285	-22.5	-75	-45	-82.5	-108.75	-67.5	-108.75	-116.25
1286	0	-56.25	-37.5	-75	-101.25	-63.75	-105	-108.75
1287	41.25	-15	-15	-52.5	-78.75	-41.25	-78.75	-82.5
1288	11.25	-37.5	7.5	-33.75	-60	-18.75	-56.25	-60
1289	-63.75	-75	11.25	-30	-56.25	-11.25	-52.5	-52.5
1290	-86.25	-45	15	-22.5	-48.75	0	-45	-45
1291	-26.25	22.5	7.5	-22.5	-45	-3.75	-48.75	-48.75
1292	7.5	33.75	-7.5	-33.75	-56.25	-15	-60	-63.75
1293	0	-7.5	-22.5	-48.75	-67.5	-26.25	-75	-75
1294	45	-30	-37.5	-63.75	-86.25	-48.75	-93.75	-93.75
1295	71.25	-71.25	-37.5	-63.75	-101.25	-75	-123.75	-116.25
1296	45	-112.5	-3.75	-30	-97.5	-82.5	-135	-127.5
1297	30	-142.5	60	30	-75	-86.25	-146.25	-138.75
1298	48.75	-172.5	135	112.5	-48.75	-93.75	-168.75	-168.75
1299	63.75	-191.25	213.75	195	-22.5	-105	-191.25	-198.75
1300	33.75	-165	281.25	270	15	-97.5	-195	-206.25
1301	-11.25	-105	341.25	352.5	71.25	-60	-172.5	-195
1302	-11.25	-18.75	393.75	446.25	150	0	-131.25	-157.5
1303	48.75	67.5	435	536.25	228.75	67.5	-75	-105
1304	116.25	127.5	461.25	622.5	318.75	142.5	0	-37.5
1305	165	172.5	476.25	697.5	405	225	75	30
1306	240	210	476.25	735	457.5	288.75	146.25	93.75
1307	318.75	307.5	480	802.5	543.75	386.25	247.5	183.75
1308	363.75	450	483.75	907.5	675	528.75	386.25	303.75
1309	363.75	536.25	461.25	952.5	780	671.25	525	416.25
1310	363.75	618.75	386.25	881.25	828.75	776.25	641.25	521.25
1311	397.5	753.75	277.5	772.5	881.25	900	783.75	656.25
1312	431.25	941.25	236.25	753.75	1005	1095	982.5	836.25
1313	416.25	1140	210	761.25	1132.5	1293.75	1192.5	1027.5
1314	386.25	1316.25	78.75	645	1173.75	1451.25	1391.25	1218.75
1315	427.5	1503.75	-123.75	431.25	1166.25	1582.5	1582.5	1410
1316	480	1623.75	-311.25	221.25	1173.75	1721.25	1755	1575
1317	480	1642.5	-487.5	-33.75	1166.25	1852.5	1908.75	1698.75
1318	487.5	1605	-592.5	-217.5	1173.75	1961.25	2025	1777.5
1319	468.75	1500	-570	-232.5	1245	2051.25	2085	1788.75
1320	390	1387.5	-566.25	-255	1286.25	2111.25	2111.25	1762.5
1321	307.5	1312.5	-648.75	-397.5	1230	2081.25	2066.25	1691.25
1322	225	1181.25	-720	-566.25	1072.5	1908.75	1886.25	1522.5
1323	123.75	986.25	-716.25	-675	847.5	1593.75	1575	1256.25
1324	3.75	813.75	-675	-757.5	573.75	1207.5	1211.25	975
1325	-116.25	682.5	-626.25	-832.5	273.75	806.25	843.75	705
1326	-195	558.75	-592.5	-903.75	-11.25	438.75	517.5	468.75
1327	-206.25	423.75	-600	-963.75	-225	168.75	255	270
1328	-206.25	285	-585	-930	-281.25	48.75	101.25	123.75
1329	-195	187.5	-536.25	-836.25	-258.75	15	22.5	22.5
1330	-131.25	127.5	-513.75	-768.75	-236.25	3.75	-11.25	-22.5
1331	-93.75	71.25	-498.75	-690	-187.5	41.25	15	-7.5
1332	-97.5	45	-468.75	-596.25	-135	78.75	48.75	11.25
1333	-90	52.5	-427.5	-525	-135	63.75	45	11.25
1334	-75	52.5	-401.25	-476.25	-153.75	33.75	22.5	0
1335	-71.25	33.75	-375	-416.25	-146.25	26.25	15	0
1336	-97.5	30	-326.25	-341.25	-116.25	37.5	22.5	7.5
1337	-123.75	71.25	-266.25	-258.75	-63.75	71.25	45	18.75
1338	-71.25	168.75	-202.5	-165	7.5	123.75	78.75	45
1339	-18.75	221.25	-165	-108.75	45	142.5	86.25	48.75
1340	-22.5	172.5	-142.5	-71.25	52.5	135	71.25	33.75
1341	-7.5	93.75	-116.25	-45	60	127.5	60	22.5
1342	60	48.75	-86.25	-22.5	63.75	120	56.25	26.25
1343	93.75	30	-60	-3.75	63.75	112.5	52.5	26.25
1344	48.75	3.75	-48.75	3.75	52.5	97.5	37.5	7.5
1345	3.75	-33.75	-37.5	11.25	48.75	90	30	-7.5
1346	3.75	-30	-11.25	33.75	60	97.5	37.5	0
1347	63.75	56.25	7.5	52.5	75	108.75	48.75	11.25
1348	52.5	90	11.25	60	78.75	116.25	56.25	15
1349	-18.75	86.25	7.5	60	75	112.5	45	3.75
1350	-30	120	7.5	60	75	112.5	41.25	0
1351	0	142.5	15	63.75	75	112.5	45	7.5
1352	26.25	127.5	11.25	71.25	78.75	108.75	37.5	7.5
1353	26.25	90	7.5	71.25	71.25	97.5	26.25	0
1354	90	63.75	3.75	67.5	63.75	86.25	18.75	-7.5
1355	131.25	22.5	0	67.5	56.25	71.25	7.5	-15
1356	75	-41.25	3.75	67.5	48.75	60	-3.75	-26.25
1357	26.25	-78.75	11.25	71.25	48.75	60	-3.75	-30
1358	33.75	-48.75	18.75	75	52.5	67.5	3.75	-18.75
1359	90	30	30	86.25	67.5	82.5	22.5	3.75
1360	90	67.5	37.5	97.5	75	93.75	33.75	7.5
1361	11.25	45	37.5	97.5	75	97.5	30	-7.5
1362	-56.25	33.75	33.75	97.5	75	97.5	22.5	-18.75
1363	-22.5	86.25	26.25	93.75	75	97.5	22.5	-15
1364	33.75	108.75	15	86.25	67.5	93.75	18.75	-11.25
1365	67.5	75	18.75	97.5	78.75	101.25	30	0
1366	131.25	56.25	26.25	105	82.5	97.5	33.75	11.25
1367	165	37.5	18.75	97.5	67.5	82.5	22.5	3.75
1368	120	22.5	22.5	101.25	67.5	86.25	22.5	0
1369	75	22.5	22.5	97.5	67.5	86.25	22.5	-3.75
1370	67.5	18.75	30	105	75	97.5	30	3.75
1371	82.5	33.75	41.25	120	90	108.75	41.25	15
1372	52.5	48.75	45	127.5	93.75	112.5	45	15
1373	-11.25	52.5	45	131.25	97.5	112.5	45	15
1374	-37.5	67.5	45	135	101.25	116.25	45	15
1375	-22.5	75	41.25	131.25	97.5	112.5	41.25	7.5
1376	3.75	71.25	30	120	86.25	105	33.75	0
1377	45	97.5	18.75	116.25	82.5	101.25	30	3.75
1378	135	112.5	0	105	75	93.75	22.5	0
1379	161.25	71.25	-7.5	101.25	67.5	86.25	15	-7.5
1380	97.5	33.75	0	105	71.25	86.25	18.75	-7.5
1381	75	67.5	0	101.25	63.75	82.5	18.75	-15
1382	82.5	93.75	-22.5	86.25	48.75	67.5	3.75	-26.25
1383	71.25	78.75	-45	67.5	30	52.5	-11.25	-41.25
1384	41.25	93.75	-37.5	78.75	45	67.5	3.75	-30
1385	-7.5	127.5	-26.25	93.75	63.75	90	18.75	-18.75
1386	-26.25	150	-7.5	116.25	90	112.5	33.75	-7.5
1387	-7.5	116.25	15	138.75	108.75	127.5	45	11.25
1388	30	78.75	45	172.5	142.5	157.5	78.75	45
1389	78.75	71.25	52.5	183.75	157.5	176.25	101.25	71.25
1390	142.5	33.75	33.75	172.5	146.25	165	90	63.75
1391	180	7.5	18.75	161.25	127.5	142.5	71.25	45
1392	153.75	22.5	22.5	161.25	127.5	138.75	67.5	41.25
1393	135	45	15	161.25	123.75	135	63.75	37.5
1394	116.25	33.75	15	161.25	123.75	138.75	67.5	33.75
1395	97.5	7.5	18.75	168.75	131.25	146.25	78.75	41.25
1396	112.5	52.5	37.5	191.25	153.75	176.25	108.75	67.5
1397	112.5	123.75	60	213.75	180	206.25	135	93.75
1398	75	131.25	63.75	213.75	183.75	213.75	138.75	93.75
1399	56.25	108.75	45	206.25	180	210	131.25	86.25
1400	67.5	101.25	41.25	210	187.5	213.75	127.5	82.5
1401	101.25	127.5	37.5	206.25	180	198.75	116.25	75
1402	191.25	165	11.25	183.75	157.5	176.25	93.75	60
1403	236.25	150	-15	168.75	138.75	157.5	82.5	52.5
1404	202.5	120	-15	172.5	138.75	157.5	86.25	52.5
1405	168.75	105	-7.5	176.25	142.5	157.5	90	52.5
1406	172.5	101.25	-3.75	183.75	146.25	165	93.75	56.25
1407	172.5	93.75	11.25	195	161.25	180	105	67.5
1408	146.25	93.75	30	217.5	180	202.5	131.25	86.25
1409	101.25	112.5	45	236.25	202.5	228.75	157.5	112.5
1410	48.75	123.75	30	228.75	198.75	232.5	157.5	108.75
1411	67.5	142.5	11.25	213.75	191.25	221.25	146.25	101.25
1412	131.25	187.5	3.75	213.75	187.5	221.25	142.5	97.5
1413	168.75	210	7.5	210	187.5	217.5	138.75	97.5
1414	210	168.75	-3.75	202.5	172.5	195	123.75	90
1415	232.5	93.75	-7.5	195	157.5	180	112.5	82.5
1416	195	63.75	-7.5	198.75	157.5	183.75	120	82.5
1417	172.5	78.75	3.75	210	168.75	198.75	131.25	90
1418	176.25	97.5	-3.75	202.5	161.25	191.25	123.75	82.5
1419	172.5	108.75	-11.25	198.75	153.75	183.75	116.25	75
1420	176.25	142.5	0	210	165	195	123.75	78.75
1421	176.25	210	18.75	228.75	180	210	138.75	97.5
1422	150	262.5	18.75	228.75	183.75	213.75	142.5	105
1423	116.25	258.75	-7.5	210	165	195	123.75	93.75
1424	131.25	255	-15	198.75	153.75	187.5	120	93.75
1425	172.5	247.5	-15	206.25	161.25	195	131.25	105
1426	262.5	210	-3.75	217.5	165	198.75	142.5	116.25
1427	326.25	153.75	3.75	225	168.75	198.75	146.25	123.75
1428	277.5	86.25	15	228.75	172.5	202.5	150	127.5
1429	225	60	22.5	236.25	172.5	210	157.5	135
1430	236.25	90	26.25	240	176.25	210	161.25	138.75
1431	240	131.25	33.75	247.5	183.75	213.75	161.25	142.5
1432	202.5	150	26.25	236.25	172.5	206.25	153.75	135
1433	165	153.75	30	232.5	168.75	206.25	157.5	131.25
1434	153.75	176.25	33.75	236.25	176.25	213.75	165	135
1435	165	198.75	26.25	228.75	168.75	213.75	157.5	135
1436	180	206.25	18.75	221.25	157.5	198.75	142.5	123.75
1437	191.25	198.75	3.75	206.25	138.75	180	123.75	105
1438	232.5	168.75	-15	183.75	112.5	150	97.5	86.25
1439	273.75	131.25	-22.5	176.25	101.25	135	90	82.5
1440	255	108.75	-7.5	183.75	105	142.5	101.25	86.25
1441	228.75	112.5	7.5	187.5	108.75	146.25	105	86.25
1442	236.25	142.5	3.75	180	93.75	135	93.75	78.75
1443	258.75	183.75	3.75	180	93.75	131.25	93.75	82.5
1444	225	180	15	191.25	105	142.5	105	97.5
1445	150	157.5	30	198.75	116.25	150	108.75	97.5
1446	108.75	172.5	37.5	206.25	123.75	157.5	112.5	105
1447	120	198.75	30	195	112.5	153.75	112.5	105
1448	146.25	202.5	33.75	195	112.5	153.75	112.5	105
1449	183.75	206.25	30	191.25	101.25	142.5	101.25	90
1450	236.25	195	11.25	168.75	78.75	112.5	71.25	63.75
1451	247.5	138.75	-7.5	142.5	52.5	82.5	45	33.75
1452	228.75	135	3.75	146.25	56.25	78.75	41.25	33.75
1453	217.5	183.75	30	161.25	67.5	93.75	52.5	48.75
1454	213.75	187.5	41.25	157.5	63.75	90	52.5	48.75
1455	221.25	146.25	60	165	71.25	93.75	60	52.5
1456	183.75	90	86.25	191.25	93.75	116.25	82.5	75
1457	105	86.25	105	206.25	112.5	138.75	97.5	90
1458	56.25	116.25	116.25	213.75	123.75	150	105	93.75
1459	63.75	123.75	112.5	202.5	120	146.25	93.75	78.75
1460	82.5	127.5	93.75	180	97.5	116.25	63.75	52.5
1461	90	146.25	82.5	168.75	86.25	105	52.5	41.25
1462	142.5	138.75	63.75	153.75	75	86.25	37.5	26.25
1463	195	108.75	41.25	131.25	52.5	63.75	18.75	11.25
1464	168.75	101.25	41.25	127.5	45	48.75	7.5	3.75
1465	112.5	97.5	56.25	127.5	45	48.75	7.5	0
1466	78.75	56.25	63.75	127.5	48.75	56.25	11.25	0
1467	71.25	18.75	75	135	60	67.5	18.75	7.5
1468	45	11.25	97.5	157.5	86.25	90	41.25	22.5
1469	11.25	56.25	112.5	168.75	97.5	101.25	52.5	33.75
1470	3.75	116.25	123.75	180	105	112.5	63.75	45
1471	15	120	131.25	180	108.75	116.25	63.75	48.75
1472	48.75	116.25	120	165	97.5	101.25	45	33.75
1473	78.75	127.5	93.75	142.5	78.75	82.5	26.25	15
1474	101.25	93.75	60	105	45	52.5	0	-11.25
1475	127.5	60	56.25	93.75	33.75	37.5	-7.5	-18.75
1476	123.75	60	67.5	105	41.25	48.75	0	-15
1477	93.75	45	71.25	105	41.25	52.5	3.75	-15
1478	82.5	37.5	67.5	93.75	37.5	45	-7.5	-22.5
1479	71.25	48.75	63.75	90	33.75	41.25	-11.25	-30
1480	33.75	60	82.5	105	45	52.5	0	-15
1481	-37.5	60	101.25	120	63.75	75	18.75	0
1482	-67.5	67.5	97.5	116.25	60	71.25	11.25	-7.5
1483	-52.5	82.5	75	93.75	41.25	48.75	-15	-33.75
1484	-26.25	108.75	67.5	86.25	30	37.5	-22.5	-41.25
1485	18.75	135	60	78.75	26.25	33.75	-26.25	-37.5
1486	97.5	150	37.5	52.5	3.75	11.25	-48.75	-52.5
1487	127.5	116.25	15	33.75	-22.5	-15	-71.25	-71.25
1488	75	52.5	26.25	41.25	-15	-11.25	-63.75	-71.25
1489	15	7.5	45	56.25	3.75	3.75	-48.75	-60
1490	11.25	3.75	56.25	60	11.25	11.25	-37.5	-52.5
1491	26.25	7.5	71.25	71.25	18.75	26.25	-26.25	-41.25
1492	7.5	-7.5	86.25	86.25	33.75	41.25	-11.25	-30
1493	-37.5	-3.75	90	90	37.5	52.5	0	-22.5
1494	-56.25	41.25	93.75	93.75	45	63.75	7.5	-22.5
1495	-30	97.5	86.25	90	41.25	56.25	-3.75	-26.25
1496	-3.75	112.5	71.25	78.75	30	45	-18.75	-33.75
1497	-18.75	75	63.75	67.5	18.75	37.5	-26.25	-41.25
1498	15	33.75	33.75	41.25	-7.5	7.5	-52.5	-63.75
1499	71.25	18.75	26.25	33.75	-18.75	-11.25	-60	-67.5
1500	67.5	41.25	37.5	41.25	-11.25	-3.75	-52.5	-60
1501	26.25	30	37.5	41.25	-11.25	-3.75	-56.25	-67.5
1502	15	7.5	37.5	37.5	-15	-7.5	-60	-78.75
1503	26.25	26.25	52.5	48.75	-7.5	3.75	-52.5	-71.25
1504	-7.5	22.5	60	52.5	0	11.25	-45	-63.75
1505	-45	56.25	67.5	63.75	15	22.5	-30	-52.5
1506	-48.75	112.5	75	75	30	41.25	-15	-33.75
1507	-56.25	101.25	78.75	86.25	41.25	56.25	-3.75	-22.5
1508	-48.75	67.5	78.75	86.25	37.5	48.75	-15	-33.75
1509	0	45	86.25	86.25	41.25	48.75	-11.25	-30
1510	75	11.25	86.25	90	45	52.5	-7.5	-22.5
1511	105	-3.75	71.25	78.75	30	37.5	-15	-30
1512	63.75	-3.75	60	67.5	18.75	26.25	-22.5	-45
1513	33.75	-3.75	60	63.75	15	22.5	-30	-52.5
1514	33.75	-7.5	60	67.5	18.75	26.25	-26.25	-52.5
1515	26.25	-15	67.5	75	26.25	30	-18.75	-41.25
1516	7.5	3.75	75	78.75	30	37.5	-11.25	-33.75
1517	-30	30	86.25	86.25	41.25	52.5	0	-26.25
1518	-60	63.75	82.5	90	45	63.75	7.5	-22.5
1519	-52.5	105	86.25	93.75	52.5	67.5	11.25	-18.75
1520	-37.5	108.75	75	90	48.75	67.5	7.5	-22.5
1521	-67.5	56.25	52.5	63.75	26.25	45	-11.25	-37.5
1522	-41.25	7.5	22.5	41.25	0	15	-37.5	-63.75
1523	63.75	22.5	33.75	56.25	11.25	22.5	-30	-52.5
1524	112.5	71.25	67.5	86.25	41.25	48.75	-3.75	-26.25
1525	101.25	82.5	86.25	105	56.25	63.75	15	-7.5
1526	78.75	63.75	86.25	101.25	52.5	63.75	11.25	-11.25
1527	45	45	75	93.75	45	52.5	0	-18.75
1528	15	41.25	75	90	45	56.25	0	-22.5
1529	-33.75	48.75	86.25	97.5	56.25	67.5	11.25	-15
1530	-63.75	60	86.25	105	67.5	78.75	22.5	-7.5
1531	-52.5	67.5	75	101.25	60	75	22.5	-7.5
1532	-33.75	75	63.75	93.75	56.25	71.25	15	-11.25
1533	-11.25	90	60	86.25	48.75	63.75	7.5	-15
1534	41.25	86.25	45	67.5	33.75	48.75	-7.5	-26.25
1535	82.5	56.25	37.5	60	22.5	37.5	-15	-33.75
1536	86.25	60	48.75	71.25	33.75	41.25	-15	-30
1537	82.5	75	60	82.5	45	56.25	0	-22.5
1538	75	45	60	78.75	45	60	3.75	-22.5
1539	60	30	60	78.75	45	60	7.5	-18.75
1540	33.75	30	56.25	78.75	45	63.75	7.5	-22.5
1541	-18.75	56.25	71.25	93.75	60	75	22.5	-11.25
1542	-63.75	90	78.75	97.5	67.5	86.25	30	0
1543	-56.25	108.75	67.5	90	60	82.5	26.25	3.75
1544	-41.25	90	48.75	78.75	48.75	67.5	11.25	-7.5
1545	-7.5	78.75	41.25	67.5	37.5	56.25	0	-15
1546	86.25	97.5	33.75	56.25	30	45	-7.5	-18.75
1547	131.25	67.5	22.5	45	15	30	-18.75	-30
1548	97.5	37.5	26.25	41.25	7.5	26.25	-22.5	-45
1549	71.25	75	30	41.25	7.5	30	-18.75	-41.25
1550	63.75	112.5	22.5	33.75	3.75	33.75	-15	-37.5
1551	45	120	15	26.25	0	33.75	-15	-41.25
1552	7.5	127.5	18.75	30	3.75	37.5	-11.25	-41.25
1553	-33.75	135	33.75	48.75	26.25	56.25	3.75	-30
1554	-60	138.75	41.25	56.25	37.5	67.5	11.25	-22.5
1555	-37.5	146.25	41.25	63.75	41.25	71.25	15	-18.75
1556	-22.5	108.75	45	67.5	45	71.25	18.75	-3.75
1557	-30	56.25	45	60	33.75	56.25	3.75	-15
1558	41.25	45	33.75	52.5	18.75	37.5	-15	-26.25
1559	127.5	48.75	41.25	56.25	22.5	37.5	-7.5	-15
1560	108.75	15	52.5	63.75	26.25	41.25	-3.75	-15
1561	63.75	-11.25	60	67.5	33.75	52.5	11.25	-7.5
1562	78.75	3.75	48.75	60	26.25	52.5	11.25	-11.25
1563	67.5	11.25	37.5	52.5	22.5	48.75	3.75	-18.75
1564	30	37.5	48.75	60	33.75	63.75	15	-11.25
1565	-11.25	71.25	56.25	67.5	37.5	71.25	22.5	-3.75
1566	-37.5	90	63.75	75	45	78.75	30	3.75
1567	-41.25	90	63.75	75	45	78.75	30	0
1568	-45	67.5	48.75	56.25	26.25	60	11.25	-11.25
1569	-26.25	78.75	30	37.5	7.5	33.75	-11.25	-30
1570	45	86.25	7.5	18.75	-11.25	11.25	-33.75	-48.75
1571	82.5	41.25	-7.5	3.75	-33.75	-7.5	-52.5	-63.75
1572	56.25	30	0	3.75	-30	-7.5	-48.75	-63.75
1573	30	48.75	15	15	-22.5	0	-41.25	-56.25
1574	18.75	52.5	18.75	15	-22.5	0	-41.25	-60
1575	41.25	78.75	26.25	22.5	-15	11.25	-30	-45
1576	41.25	82.5	33.75	33.75	-3.75	26.25	-15	-26.25
1577	-26.25	48.75	45	37.5	0	37.5	-7.5	-22.5
1578	-86.25	52.5	52.5	45	7.5	48.75	0	-15
1579	-60	90	56.25	60	26.25	60	11.25	-3.75
1580	-15	78.75	56.25	60	30	63.75	18.75	3.75
1581	-15	33.75	41.25	37.5	7.5	45	0	-15
1582	7.5	3.75	15	15	-22.5	11.25	-33.75	-41.25
1583	41.25	-22.5	-3.75	-3.75	-45	-15	-56.25	-56.25
1584	26.25	-22.5	3.75	0	-45	-15	-48.75	-52.5
1585	33.75	15	18.75	11.25	-33.75	3.75	-30	-41.25
1586	60	45	22.5	15	-26.25	7.5	-33.75	-45
1587	78.75	48.75	33.75	22.5	-15	15	-30	-33.75
1588	60	56.25	37.5	26.25	-15	11.25	-30	-30
1589	-18.75	52.5	45	33.75	-7.5	15	-30	-30
1590	-75	37.5	56.25	41.25	3.75	30	-18.75	-26.25
1591	-60	52.5	52.5	33.75	0	30	-18.75	-26.25
1592	-33.75	93.75	37.5	18.75	-15	15	-30	-37.5
1593	-3.75	116.25	30	18.75	-15	15	-30	-37.5
1594	63.75	86.25	18.75	11.25	-26.25	3.75	-41.25	-45
1595	105	41.25	3.75	-7.5	-48.75	-22.5	-60	-63.75
1596	78.75	52.5	-3.75	-22.5	-67.5	-41.25	-75	-82.5
1597	45	105	-11.25	-26.25	-71.25	-41.25	-78.75	-82.5
1598	18.75	112.5	-18.75	-33.75	-75	-45	-78.75	-86.25
1599	3.75	60	-11.25	-30	-75	-45	-82.5	-82.5
1600	-7.5	22.5	15	-7.5	-48.75	-26.25	-63.75	-63.75
1601	-18.75	7.5	56.25	33.75	-7.5	15	-26.25	-26.25
1602	-33.75	11.25	71.25	48.75	7.5	37.5	-7.5	-7.5
1603	-48.75	22.5	60	37.5	-3.75	30	-15	-18.75
1604	-33.75	18.75	45	22.5	-18.75	15	-26.25	-26.25
1605	3.75	26.25	37.5	18.75	-18.75	15	-26.25	-26.25
1606	56.25	33.75	22.5	11.25	-26.25	3.75	-33.75	-33.75
1607	97.5	18.75	15	-3.75	-45	-15	-48.75	-48.75
1608	82.5	0	22.5	0	-41.25	-11.25	-41.25	-48.75
1609	41.25	11.25	33.75	7.5	-33.75	-3.75	-30	-41.25
1610	18.75	33.75	33.75	7.5	-41.25	-11.25	-45	-56.25
1611	7.5	45	45	15	-33.75	-3.75	-41.25	-52.5
1612	-18.75	56.25	52.5	18.75	-30	3.75	-33.75	-45
1613	-60	97.5	60	22.5	-22.5	7.5	-30	-45
1614	-97.5	150	60	22.5	-18.75	15	-30	-41.25
1615	-86.25	183.75	60	18.75	-18.75	11.25	-30	-41.25
1616	-37.5	176.25	52.5	15	-22.5	11.25	-33.75	-48.75
1617	-15	135	67.5	33.75	-7.5	22.5	-22.5	-37.5
1618	33.75	90	78.75	37.5	-7.5	22.5	-26.25	-37.5
1619	82.5	48.75	75	30	-18.75	7.5	-37.5	-41.25
1620	67.5	15	93.75	48.75	0	22.5	-18.75	-22.5
1621	33.75	-7.5	105	60	11.25	26.25	-11.25	-18.75
1622	11.25	-11.25	101.25	56.25	3.75	18.75	-22.5	-30
1623	15	26.25	105	56.25	3.75	18.75	-22.5	-30
1624	3.75	71.25	120	71.25	15	30	-15	-22.5
1625	-37.5	90	127.5	75	18.75	33.75	-11.25	-22.5
1626	-67.5	112.5	127.5	71.25	18.75	37.5	-11.25	-22.5
1627	-52.5	157.5	120	67.5	11.25	30	-15	-22.5
1628	-18.75	210	97.5	48.75	0	26.25	-22.5	-22.5
1629	15	266.25	67.5	26.25	-11.25	15	-30	-30
1630	101.25	303.75	37.5	15	-18.75	7.5	-33.75	-30
1631	176.25	270	30	11.25	-22.5	7.5	-33.75	-26.25
1632	112.5	161.25	48.75	37.5	3.75	30	-3.75	-3.75
1633	33.75	86.25	63.75	63.75	30	60	22.5	18.75
1634	45	86.25	60	63.75	30	63.75	30	26.25
1635	56.25	86.25	52.5	52.5	18.75	56.25	18.75	18.75
1636	22.5	75	33.75	41.25	7.5	45	11.25	3.75
1637	-60	56.25	30	33.75	3.75	41.25	3.75	0
1638	-105	41.25	15	18.75	-11.25	26.25	-15	-18.75
1639	-52.5	90	11.25	18.75	-3.75	30	-15	-15
1640	18.75	116.25	15	22.5	0	33.75	-3.75	0
1641	33.75	101.25	3.75	7.5	-15	22.5	-15	-7.5
1642	78.75	131.25	-15	-11.25	-37.5	0	-37.5	-30
1643	131.25	168.75	-30	-30	-60	-30	-60	-52.5
1644	86.25	146.25	-37.5	-52.5	-82.5	-48.75	-75	-63.75
1645	37.5	108.75	-22.5	-41.25	-75	-37.5	-63.75	-56.25
1646	56.25	93.75	-3.75	-15	-52.5	-18.75	-52.5	-48.75
1647	75	97.5	15	3.75	-37.5	-3.75	-37.5	-41.25
1648	48.75	93.75	26.25	11.25	-26.25	7.5	-26.25	-30
1649	0	86.25	37.5	18.75	-18.75	15	-18.75	-22.5
1650	-41.25	78.75	52.5	30	-7.5	26.25	-11.25	-11.25
1651	-52.5	52.5	67.5	41.25	3.75	37.5	0	0
1652	-45	22.5	63.75	45	3.75	37.5	-3.75	-7.5
1653	-37.5	15	48.75	30	-11.25	18.75	-22.5	-26.25
1654	30	26.25	22.5	-3.75	-45	-15	-56.25	-48.75
1655	82.5	7.5	0	-33.75	-75	-45	-82.5	-75
1656	45	-26.25	-3.75	-41.25	-82.5	-56.25	-90	-82.5
1657	-7.5	-45	-3.75	-45	-82.5	-60	-93.75	-90
1658	-3.75	-37.5	3.75	-33.75	-75	-48.75	-86.25	-86.25
1659	3.75	-15	18.75	-22.5	-67.5	-37.5	-71.25	-75
1660	-3.75	0	18.75	-22.5	-63.75	-37.5	-71.25	-71.25
1661	-52.5	-3.75	15	-26.25	-63.75	-33.75	-67.5	-71.25
1662	-105	7.5	15	-26.25	-63.75	-33.75	-67.5	-71.25
1663	-108.75	11.25	11.25	-33.75	-71.25	-41.25	-75	-75
1664	-90	0	11.25	-30	-71.25	-37.5	-78.75	-75
1665	-60	15	11.25	-26.25	-63.75	-33.75	-71.25	-67.5
1666	7.5	18.75	-3.75	-41.25	-82.5	-52.5	-86.25	-78.75
1667	82.5	3.75	-7.5	-45	-86.25	-60	-90	-78.75
1668	75	-7.5	3.75	-33.75	-78.75	-48.75	-78.75	-67.5
1669	33.75	0	15	-30	-71.25	-45	-71.25	-63.75
1670	15	15	11.25	-33.75	-78.75	-52.5	-78.75	-75
1671	7.5	11.25	7.5	-37.5	-82.5	-56.25	-86.25	-82.5
1672	-7.5	7.5	15	-30	-75	-48.75	-78.75	-71.25
1673	-52.5	11.25	11.25	-30	-71.25	-41.25	-75	-67.5
1674	-112.5	7.5	18.75	-22.5	-63.75	-33.75	-71.25	-67.5
1675	-108.75	15	33.75	-11.25	-52.5	-18.75	-60	-56.25
1676	-67.5	37.5	30	-15	-56.25	-26.25	-63.75	-60
1677	-41.25	56.25	18.75	-22.5	-63.75	-37.5	-75	-71.25
1678	11.25	45	0	-37.5	-78.75	-56.25	-93.75	-90
1679	60	15	-18.75	-56.25	-101.25	-78.75	-112.5	-101.25
1680	33.75	-37.5	-15	-56.25	-101.25	-78.75	-108.75	-105
1681	3.75	-60	3.75	-37.5	-90	-67.5	-105	-105
1682	0	-60	26.25	-11.25	-86.25	-78.75	-120	-123.75
1683	18.75	-52.5	67.5	33.75	-78.75	-97.5	-142.5	-150
1684	3.75	-56.25	142.5	112.5	-48.75	-93.75	-157.5	-165
1685	-18.75	-48.75	236.25	210	-3.75	-86.25	-165	-180
1686	-37.5	-37.5	322.5	300	33.75	-82.5	-168.75	-187.5
1687	-45	-33.75	382.5	371.25	71.25	-67.5	-165	-183.75
1688	-15	-11.25	420	446.25	123.75	-41.25	-146.25	-168.75
1689	22.5	56.25	438.75	517.5	172.5	-11.25	-127.5	-150
1690	123.75	142.5	461.25	592.5	243.75	45	-78.75	-101.25
1691	247.5	195	487.5	671.25	326.25	120	-7.5	-33.75
1692	262.5	236.25	513.75	731.25	397.5	195	71.25	33.75
1693	240	270	532.5	791.25	468.75	285	161.25	116.25
1694	285	337.5	551.25	892.5	592.5	423.75	300	236.25
1695	345	446.25	536.25	956.25	712.5	573.75	446.25	363.75
1696	333.75	540	476.25	907.5	776.25	686.25	570	476.25
1697	307.5	656.25	371.25	802.5	828.75	810	708.75	607.5
1698	318.75	825	292.5	742.5	926.25	978.75	885	765
1699	386.25	1042.5	251.25	735	1050	1166.25	1072.5	930
1700	446.25	1275	142.5	641.25	1106.25	1316.25	1252.5	1106.25
1701	468.75	1496.25	-67.5	408.75	1083.75	1440	1436.25	1297.5
1702	528.75	1608.75	-296.25	153.75	1057.5	1560	1608.75	1470
1703	596.25	1623.75	-506.25	-123.75	1023.75	1668.75	1751.25	1593.75
1704	577.5	1665	-667.5	-367.5	1016.25	1785	1886.25	1695
1705	483.75	1657.5	-697.5	-431.25	1083.75	1908.75	1995	1747.5
1706	412.5	1556.25	-660	-408.75	1173.75	2017.5	2058.75	1751.25
1707	337.5	1432.5	-708.75	-487.5	1181.25	2047.5	2062.5	1713.75
1708	243.75	1327.5	-798.75	-641.25	1087.5	1957.5	1968.75	1616.25
1709	131.25	1196.25	-802.5	-731.25	930	1740	1740	1421.25
1710	-22.5	1016.25	-750	-772.5	716.25	1410	1410	1151.25
1711	-116.25	840	-723.75	-855	412.5	997.5	1035	866.25
1712	-138.75	682.5	-723.75	-963.75	67.5	562.5	645	581.25
1713	-161.25	540	-720	-1038.75	-210	217.5	330	345
1714	-127.5	412.5	-693.75	-1035	-337.5	22.5	131.25	176.25
1715	-86.25	273.75	-630	-941.25	-333.75	-48.75	18.75	56.25
1716	-123.75	135	-573.75	-836.25	-292.5	-63.75	-33.75	-18.75
1717	-157.5	67.5	-525	-727.5	-225	-22.5	-18.75	-30
1718	-142.5	67.5	-487.5	-622.5	-161.25	26.25	18.75	-11.25
1719	-90	123.75	-450	-543.75	-146.25	37.5	33.75	7.5
1720	-71.25	161.25	-408.75	-483.75	-153.75	26.25	26.25	7.5
1721	-123.75	142.5	-363.75	-412.5	-142.5	22.5	18.75	3.75
1722	-153.75	168.75	-311.25	-326.25	-101.25	37.5	26.25	7.5
1723	-120	240	-255	-243.75	-52.5	67.5	48.75	33.75
1724	-67.5	258.75	-210	-168.75	0	101.25	78.75	60
1725	-33.75	210	-153.75	-93.75	45	131.25	105	78.75
1726	41.25	127.5	-90	-22.5	90	161.25	131.25	101.25
1727	101.25	41.25	-41.25	30	112.5	161.25	127.5	97.5
1728	75	33.75	-3.75	52.5	116.25	150	116.25	82.5
1729	41.25	56.25	15	56.25	105	138.75	93.75	60
1730	48.75	52.5	22.5	60	93.75	112.5	63.75	30
1731	60	56.25	33.75	71.25	86.25	97.5	52.5	18.75
1732	33.75	48.75	45	78.75	86.25	97.5	48.75	22.5
1733	-22.5	37.5	52.5	86.25	82.5	93.75	45	15
1734	-75	45	60	90	86.25	97.5	41.25	11.25
1735	-78.75	82.5	60	93.75	82.5	93.75	33.75	7.5
1736	-48.75	101.25	56.25	93.75	82.5	90	30	7.5
1737	-30	90	52.5	93.75	75	82.5	22.5	3.75
1738	18.75	90	41.25	82.5	56.25	60	7.5	-7.5
1739	82.5	75	22.5	67.5	33.75	37.5	-15	-33.75
1740	67.5	48.75	11.25	56.25	15	15	-33.75	-52.5
1741	18.75	37.5	22.5	60	18.75	18.75	-33.75	-56.25
1742	30	41.25	30	71.25	30	26.25	-26.25	-48.75
1743	78.75	86.25	60	97.5	52.5	48.75	-3.75	-26.25
1744	63.75	112.5	78.75	116.25	67.5	63.75	11.25	-15
1745	-11.25	97.5	90	127.5	75	75	18.75	-11.25
1746	-30	105	93.75	135	82.5	86.25	30	0
1747	-18.75	120	93.75	135	78.75	86.25	26.25	-3.75
1748	-15	112.5	78.75	123.75	67.5	71.25	11.25	-18.75
1749	-18.75	105	67.5	116.25	56.25	56.25	-3.75	-22.5
1750	22.5	97.5	45	97.5	41.25	33.75	-22.5	-33.75
1751	86.25	37.5	37.5	90	30	22.5	-26.25	-37.5
1752	90	-26.25	56.25	108.75	48.75	45	0	-15
1753	86.25	7.5	86.25	138.75	75	75	30	7.5
1754	105	63.75	101.25	153.75	90	86.25	41.25	18.75
1755	63.75	52.5	93.75	146.25	82.5	75	26.25	3.75
1756	-18.75	18.75	97.5	142.5	75	71.25	26.25	0
1757	-63.75	22.5	101.25	153.75	82.5	78.75	33.75	3.75
1758	-37.5	86.25	105	168.75	101.25	97.5	48.75	18.75
1759	15	153.75	108.75	180	116.25	116.25	63.75	33.75
1760	26.25	153.75	105	172.5	105	105	52.5	22.5
1761	0	112.5	90	157.5	86.25	78.75	22.5	-3.75
1762	60	116.25	67.5	142.5	67.5	52.5	-3.75	-22.5
1763	135	127.5	52.5	131.25	52.5	33.75	-18.75	-33.75
1764	116.25	116.25	52.5	127.5	45	26.25	-22.5	-33.75
1765	75	116.25	52.5	127.5	48.75	33.75	-11.25	-30
1766	45	116.25	48.75	123.75	52.5	41.25	-3.75	-26.25
1767	30	90	52.5	131.25	60	56.25	3.75	-18.75
1768	48.75	90	75	157.5	86.25	82.5	30	3.75
1769	45	123.75	97.5	183.75	112.5	108.75	56.25	22.5
1770	18.75	150	101.25	191.25	123.75	120	60	26.25
1771	18.75	142.5	101.25	198.75	127.5	123.75	60	37.5
1772	33.75	116.25	108.75	210	138.75	135	71.25	52.5
1773	52.5	112.5	112.5	217.5	150	138.75	82.5	60
1774	105	135	97.5	202.5	135	123.75	71.25	52.5
1775	135	101.25	71.25	180	108.75	97.5	48.75	33.75
1776	131.25	67.5	75	183.75	108.75	93.75	48.75	33.75
1777	120	82.5	93.75	202.5	123.75	108.75	56.25	37.5
1778	105	93.75	86.25	198.75	123.75	112.5	60	33.75
1779	101.25	93.75	82.5	198.75	123.75	112.5	63.75	41.25
1780	86.25	78.75	93.75	210	138.75	131.25	82.5	52.5
1781	33.75	60	105	228.75	157.5	150	97.5	63.75
1782	-18.75	78.75	123.75	247.5	176.25	168.75	112.5	75
1783	-30	97.5	131.25	255	183.75	176.25	112.5	75
1784	3.75	101.25	105	240	165	153.75	90	56.25
1785	37.5	123.75	86.25	225	150	138.75	75	41.25
1786	101.25	157.5	71.25	217.5	142.5	131.25	67.5	37.5
1787	153.75	146.25	45	198.75	120	105	48.75	26.25
1788	135	135	45	195	120	101.25	48.75	26.25
1789	101.25	161.25	48.75	198.75	123.75	108.75	52.5	26.25
1790	105	195	56.25	206.25	127.5	112.5	56.25	33.75
1791	138.75	198.75	71.25	225	146.25	135	86.25	63.75
1792	150	191.25	82.5	243.75	165	153.75	105	75
1793	78.75	180	97.5	255	176.25	168.75	112.5	78.75
1794	30	172.5	112.5	270	191.25	180	120	86.25
1795	56.25	180	123.75	285	206.25	195	135	101.25
1796	93.75	210	108.75	281.25	202.5	191.25	131.25	105
1797	105	228.75	86.25	266.25	191.25	180	120	101.25
1798	142.5	202.5	67.5	251.25	172.5	165	105	86.25
1799	202.5	146.25	56.25	240	157.5	150	93.75	75
1800	210	116.25	63.75	251.25	172.5	161.25	105	82.5
1801	172.5	90	82.5	273.75	195	187.5	127.5	97.5
1802	146.25	75	93.75	285	202.5	195	135	101.25
1803	142.5	108.75	82.5	273.75	191.25	183.75	131.25	97.5
1804	150	138.75	78.75	270	187.5	187.5	135	101.25
1805	101.25	120	93.75	281.25	198.75	206.25	150	116.25
1806	26.25	93.75	93.75	281.25	198.75	210	153.75	116.25
1807	30	135	82.5	270	187.5	202.5	146.25	108.75
1808	112.5	210	82.5	277.5	195	210	157.5	123.75
1809	191.25	255	105	303.75	221.25	232.5	176.25	142.5
1810	236.25	262.5	97.5	300	213.75	217.5	161.25	135
1811	262.5	228.75	71.25	273.75	180	176.25	123.75	105
1812	236.25	191.25	63.75	262.5	161.25	157.5	112.5	97.5
1813	195	176.25	71.25	258.75	157.5	157.5	116.25	97.5
1814	187.5	172.5	78.75	266.25	165	168.75	123.75	105
1815	180	161.25	78.75	262.5	165	168.75	127.5	105
1816	161.25	157.5	75	258.75	161.25	168.75	127.5	105
1817	138.75	183.75	86.25	273.75	176.25	183.75	138.75	116.25
1818	105	195	108.75	292.5	195	202.5	161.25	138.75
1819	101.25	210	108.75	285	183.75	198.75	153.75	131.25
1820	127.5	225	82.5	258.75	157.5	172.5	127.5	112.5
1821	150	225	78.75	255	153.75	168.75	127.5	112.5
1822	191.25	213.75	78.75	251.25	146.25	157.5	116.25	105
1823	251.25	176.25	71.25	232.5	120	131.25	93.75	86.25
1824	236.25	127.5	75	236.25	120	127.5	93.75	86.25
1825	191.25	112.5	86.25	240	120	131.25	97.5	90
1826	176.25	127.5	82.5	232.5	112.5	127.5	97.5	86.25
1827	187.5	161.25	78.75	225	108.75	127.5	101.25	90
1828	180	176.25	71.25	217.5	97.5	120	90	82.5
1829	157.5	191.25	93.75	236.25	112.5	135	101.25	93.75
1830	131.25	232.5	116.25	255	131.25	150	120	112.5
1831	123.75	266.25	108.75	247.5	123.75	138.75	105	105
1832	127.5	262.5	93.75	228.75	101.25	116.25	78.75	86.25
1833	123.75	243.75	86.25	213.75	86.25	101.25	67.5	71.25
1834	161.25	225	71.25	195	63.75	78.75	48.75	60
1835	240	195	67.5	187.5	56.25	71.25	45	60
1836	251.25	153.75	90	202.5	71.25	82.5	56.25	63.75
1837	195	123.75	108.75	213.75	78.75	90	60	60
1838	161.25	127.5	112.5	210	75	90	60	56.25
1839	146.25	146.25	116.25	206.25	71.25	86.25	60	56.25
1840	108.75	127.5	135	213.75	78.75	90	60	56.25
1841	82.5	120	157.5	225	86.25	97.5	63.75	60
1842	56.25	142.5	165	228.75	90	101.25	67.5	63.75
1843	41.25	168.75	161.25	232.5	101.25	105	67.5	67.5
1844	71.25	187.5	146.25	213.75	82.5	90	52.5	52.5
1845	90	161.25	120	183.75	52.5	60	18.75	26.25
1846	101.25	142.5	108.75	168.75	37.5	37.5	0	3.75
1847	142.5	135	97.5	150	22.5	18.75	-18.75	-11.25
1848	135	105	101.25	146.25	18.75	15	-15	-7.5
1849	71.25	93.75	123.75	161.25	33.75	33.75	0	-3.75
1850	52.5	150	123.75	157.5	30	33.75	0	-7.5
1851	82.5	176.25	116.25	146.25	18.75	22.5	-3.75	-11.25
1852	78.75	127.5	123.75	153.75	30	33.75	3.75	0
1853	30	93.75	146.25	168.75	48.75	48.75	18.75	11.25
1854	-18.75	93.75	157.5	176.25	56.25	56.25	18.75	11.25
1855	-33.75	90	168.75	180	67.5	71.25	30	22.5
1856	-33.75	60	165	176.25	63.75	63.75	18.75	11.25
1857	-30	37.5	153.75	165	52.5	48.75	3.75	0
1858	26.25	60	142.5	150	37.5	33.75	-7.5	-3.75
1859	75	26.25	131.25	135	18.75	15	-22.5	-15
1860	71.25	-18.75	123.75	120	3.75	-3.75	-37.5	-30
1861	41.25	7.5	120	112.5	0	-7.5	-41.25	-37.5
1862	15	30	112.5	105	-3.75	-11.25	-48.75	-48.75
1863	0	26.25	105	93.75	-11.25	-15	-60	-63.75
1864	-11.25	30	116.25	101.25	-3.75	-7.5	-56.25	-63.75
1865	-56.25	22.5	123.75	105	3.75	3.75	-41.25	-52.5
1866	-75	37.5	131.25	116.25	18.75	22.5	-18.75	-30
1867	-33.75	105	150	131.25	37.5	45	0	-7.5
1868	-3.75	150	146.25	127.5	33.75	45	-7.5	-11.25
1869	-33.75	112.5	123.75	101.25	11.25	18.75	-30	-37.5
1870	11.25	82.5	101.25	78.75	-11.25	-3.75	-48.75	-52.5
1871	101.25	78.75	93.75	67.5	-22.5	-18.75	-60	-60
1872	101.25	75	90	63.75	-30	-26.25	-63.75	-63.75
1873	45	67.5	101.25	71.25	-30	-18.75	-52.5	-52.5
1874	-7.5	30	105	67.5	-30	-18.75	-52.5	-56.25
1875	-33.75	0	105	63.75	-37.5	-22.5	-60	-63.75
1876	-52.5	-3.75	105	63.75	-37.5	-26.25	-67.5	-67.5
1877	-105	-15	105	60	-37.5	-30	-71.25	-71.25
1878	-146.25	11.25	120	75	-18.75	-11.25	-56.25	-60
1879	-131.25	71.25	127.5	86.25	-7.5	-3.75	-48.75	-52.5
1880	-71.25	108.75	116.25	75	-15	-7.5	-56.25	-52.5
1881	-33.75	108.75	105	63.75	-26.25	-18.75	-63.75	-56.25
1882	7.5	86.25	97.5	60	-30	-22.5	-67.5	-60
1883	67.5	45	90	56.25	-37.5	-26.25	-67.5	-60
1884	52.5	0	82.5	48.75	-45	-30	-71.25	-67.5
1885	3.75	-7.5	90	48.75	-41.25	-26.25	-67.5	-71.25
1886	0	11.25	90	45	-41.25	-26.25	-71.25	-78.75
1887	-18.75	7.5	75	33.75	-56.25	-41.25	-86.25	-97.5
1888	-67.5	-15	56.25	11.25	-78.75	-67.5	-108.75	-116.25
1889	-82.5	11.25	78.75	30	-60	-45	-90	-93.75
1890	-22.5	127.5	116.25	71.25	-15	0	-45	-52.5
1891	-11.25	172.5	120	78.75	-7.5	11.25	-41.25	-48.75
1892	-67.5	108.75	105	67.5	-18.75	-3.75	-56.25	-60
1893	-82.5	82.5	116.25	75	-11.25	3.75	-45	-45
1894	-22.5	71.25	105	67.5	-15	0	-45	-41.25
1895	33.75	26.25	75	41.25	-41.25	-22.5	-67.5	-63.75
1896	26.25	0	63.75	33.75	-48.75	-37.5	-78.75	-78.75
1897	-18.75	-11.25	86.25	48.75	-37.5	-33.75	-78.75	-78.75
1898	-37.5	-7.5	90	52.5	-37.5	-33.75	-78.75	-82.5
1899	-33.75	11.25	78.75	41.25	-48.75	-45	-90	-90
1900	-37.5	26.25	78.75	41.25	-48.75	-41.25	-86.25	-86.25
1901	-60	41.25	90	52.5	-30	-22.5	-63.75	-67.5
1902	-86.25	37.5	112.5	75	-3.75	3.75	-41.25	-45
1903	-78.75	41.25	120	86.25	7.5	22.5	-22.5	-26.25
1904	-41.25	75	116.25	86.25	11.25	30	-15	-15
1905	-56.25	75	93.75	63.75	-7.5	11.25	-33.75	-37.5
1906	-63.75	37.5	63.75	33.75	-41.25	-22.5	-63.75	-75
1907	0	-15	56.25	30	-45	-26.25	-67.5	-75
1908	48.75	-41.25	82.5	56.25	-18.75	-3.75	-45	-52.5
1909	45	-18.75	116.25	86.25	11.25	22.5	-15	-22.5
1910	18.75	3.75	120	90	15	26.25	-15	-26.25
1911	-11.25	0	101.25	75	0	11.25	-33.75	-41.25
1912	-33.75	7.5	101.25	78.75	3.75	15	-30	-41.25
1913	-75	26.25	108.75	82.5	7.5	18.75	-26.25	-41.25
1914	-108.75	56.25	97.5	71.25	0	7.5	-41.25	-52.5
1915	-105	86.25	90	63.75	-7.5	3.75	-45	-56.25
1916	-86.25	112.5	82.5	60	-11.25	3.75	-45	-52.5
1917	-45	146.25	75	56.25	-7.5	7.5	-37.5	-45
1918	37.5	161.25	71.25	52.5	-7.5	3.75	-41.25	-45
1919	86.25	105	71.25	52.5	-15	-3.75	-48.75	-48.75
1920	56.25	41.25	75	48.75	-18.75	-11.25	-52.5	-56.25
1921	7.5	26.25	86.25	56.25	-18.75	-11.25	-48.75	-52.5
1922	-3.75	26.25	86.25	52.5	-22.5	-11.25	-45	-48.75
1923	18.75	33.75	90	63.75	-7.5	11.25	-26.25	-30
1924	15	30	108.75	82.5	15	33.75	-7.5	-18.75
1925	-48.75	26.25	116.25	90	26.25	41.25	-7.5	-18.75
1926	-105	52.5	116.25	90	22.5	37.5	-11.25	-18.75
1927	-108.75	67.5	105	78.75	15	30	-18.75	-26.25
1928	-86.25	67.5	90	67.5	3.75	18.75	-30	-33.75
1929	-71.25	78.75	82.5	60	-7.5	7.5	-37.5	-41.25
1930	-22.5	86.25	67.5	45	-22.5	-11.25	-52.5	-56.25
1931	22.5	63.75	41.25	18.75	-48.75	-41.25	-78.75	-78.75
1932	22.5	60	37.5	15	-60	-48.75	-86.25	-82.5
1933	33.75	97.5	52.5	33.75	-37.5	-26.25	-60	-60
1934	30	127.5	52.5	30	-33.75	-22.5	-56.25	-60
1935	22.5	131.25	45	18.75	-45	-33.75	-67.5	-67.5
1936	7.5	101.25	60	33.75	-37.5	-18.75	-48.75	-52.5
1937	-41.25	67.5	78.75	52.5	-15	0	-30	-37.5
1938	-90	60	86.25	67.5	3.75	15	-18.75	-26.25
1939	-93.75	56.25	93.75	71.25	7.5	26.25	-11.25	-18.75
1940	-63.75	60	90	63.75	3.75	22.5	-18.75	-22.5
1941	-45	78.75	90	63.75	3.75	18.75	-22.5	-26.25
1942	11.25	93.75	82.5	60	3.75	18.75	-22.5	-26.25
1943	60	60	67.5	48.75	-11.25	0	-41.25	-41.25
1944	52.5	15	60	33.75	-30	-15	-52.5	-52.5
1945	33.75	18.75	71.25	41.25	-26.25	-11.25	-41.25	-41.25
1946	22.5	41.25	86.25	45	-26.25	-3.75	-33.75	-33.75
1947	3.75	26.25	71.25	30	-37.5	-15	-45	-45
1948	0	33.75	71.25	30	-37.5	-18.75	-48.75	-48.75
1949	-52.5	52.5	78.75	37.5	-33.75	-18.75	-48.75	-45
1950	-105	71.25	75	37.5	-30	-11.25	-45	-45
1951	-97.5	127.5	75	41.25	-22.5	-3.75	-37.5	-41.25
1952	-71.25	157.5	60	26.25	-33.75	-11.25	-48.75	-48.75
1953	-71.25	120	41.25	3.75	-56.25	-33.75	-67.5	-67.5
1954	-52.5	63.75	45	7.5	-56.25	-37.5	-67.5	-63.75
1955	41.25	37.5	41.25	11.25	-56.25	-37.5	-67.5	-60
1956	86.25	41.25	52.5	18.75	-48.75	-30	-56.25	-48.75
1957	67.5	37.5	75	37.5	-30	-7.5	-30	-30
1958	33.75	3.75	86.25	48.75	-18.75	3.75	-22.5	-18.75
1959	18.75	3.75	75	33.75	-30	-11.25	-41.25	-37.5
1960	0	11.25	75	30	-37.5	-15	-45	-41.25
1961	-63.75	-11.25	82.5	37.5	-30	-7.5	-33.75	-33.75
1962	-123.75	-22.5	86.25	41.25	-26.25	0	-33.75	-33.75
1963	-112.5	18.75	82.5	41.25	-22.5	3.75	-33.75	-33.75
1964	-56.25	71.25	78.75	33.75	-22.5	0	-33.75	-30
1965	-41.25	82.5	75	26.25	-33.75	-7.5	-45	-37.5
1966	-3.75	75	60	7.5	-48.75	-26.25	-60	-48.75
1967	56.25	37.5	37.5	-11.25	-71.25	-52.5	-78.75	-60
1968	60	-3.75	33.75	-15	-78.75	-60	-82.5	-63.75
1969	22.5	-7.5	48.75	-7.5	-75	-56.25	-75	-63.75
1970	22.5	26.25	56.25	-3.75	-71.25	-52.5	-71.25	-63.75
1971	41.25	52.5	60	-3.75	-67.5	-48.75	-67.5	-63.75
1972	22.5	45	60	-7.5	-67.5	-48.75	-75	-71.25
1973	-60	18.75	63.75	-3.75	-67.5	-48.75	-75	-75
1974	-142.5	18.75	78.75	7.5	-52.5	-30	-56.25	-56.25
1975	-138.75	67.5	75	7.5	-48.75	-22.5	-52.5	-52.5
1976	-90	105	60	-3.75	-60	-37.5	-67.5	-60
1977	-71.25	105	45	-18.75	-71.25	-52.5	-78.75	-67.5
1978	-26.25	90	30	-26.25	-82.5	-63.75	-90	-75
1979	67.5	67.5	26.25	-30	-90	-71.25	-93.75	-78.75
1980	101.25	52.5	37.5	-26.25	-86.25	-71.25	-90	-71.25
1981	45	37.5	52.5	-18.75	-78.75	-63.75	-82.5	-67.5
1982	-15	11.25	63.75	-7.5	-71.25	-52.5	-75	-60
1983	-22.5	3.75	60	-11.25	-75	-60	-82.5	-67.5
1984	-11.25	22.5	60	-11.25	-78.75	-63.75	-82.5	-67.5
1985	-45	33.75	67.5	-3.75	-67.5	-52.5	-71.25	-56.25
1986	-97.5	45	71.25	-7.5	-63.75	-45	-67.5	-56.25
1987	-123.75	60	67.5	-11.25	-67.5	-45	-71.25	-60
1988	-120	52.5	56.25	-18.75	-75	-52.5	-82.5	-71.25
1989	-93.75	52.5	45	-26.25	-82.5	-63.75	-90	-78.75
1990	-22.5	71.25	41.25	-26.25	-82.5	-67.5	-93.75	-78.75
1991	52.5	60	30	-33.75	-93.75	-78.75	-101.25	-82.5
1992	52.5	22.5	30	-37.5	-97.5	-82.5	-101.25	-82.5
1993	22.5	11.25	45	-22.5	-86.25	-71.25	-86.25	-71.25
1994	22.5	7.5	75	0	-63.75	-45	-60	-48.75
1995	22.5	7.5	78.75	7.5	-60	-41.25	-56.25	-45
1996	0	18.75	63.75	-3.75	-67.5	-52.5	-71.25	-56.25
1997	-60	11.25	63.75	-3.75	-71.25	-52.5	-75	-60
1998	-116.25	7.5	67.5	-7.5	-67.5	-48.75	-71.25	-60
1999	-123.75	30	60	-11.25	-71.25	-45	-67.5	-56.25
2000	-86.25	56.25	56.25	-11.25	-71.25	-45	-63.75	-52.5
2001	-48.75	75	60	-7.5	-63.75	-37.5	-56.25	-45
2002	-11.25	75	52.5	-11.25	-71.25	-45	-67.5	-52.5
2003	48.75	67.5	37.5	-30	-90	-75	-97.5	-78.75
2004	60	67.5	37.5	-30	-97.5	-86.25	-108.75	-86.25
2005	11.25	63.75	48.75	-22.5	-90	-78.75	-97.5	-78.75
2006	-3.75	75	56.25	-18.75	-86.25	-75	-90	-71.25
2007	7.5	101.25	67.5	-15	-82.5	-71.25	-90	-67.5
2008	-7.5	105	82.5	-7.5	-75	-60	-78.75	-60
2009	-63.75	78.75	93.75	3.75	-63.75	-45	-67.5	-52.5
2010	-108.75	78.75	97.5	7.5	-56.25	-37.5	-63.75	-52.5
2011	-105	105	108.75	15	-52.5	-37.5	-63.75	-52.5
2012	-60	142.5	112.5	15	-52.5	-37.5	-67.5	-52.5
2013	-63.75	168.75	108.75	11.25	-56.25	-45	-71.25	-52.5
2014	-26.25	198.75	82.5	0	-67.5	-56.25	-78.75	-60
2015	82.5	198.75	71.25	-7.5	-75	-63.75	-82.5	-63.75
2016	105	135	86.25	0	-67.5	-60	-75	-56.25
2017	52.5	90	116.25	26.25	-45	-33.75	-52.5	-41.25
2018	45	123.75	142.5	41.25	-30	-18.75	-41.25	-30
2019	33.75	101.25	146.25	45	-26.25	-11.25	-30	-18.75
2020	0	26.25	142.5	52.5	-18.75	0	-15	-3.75
2021	-56.25	18.75	153.75	60	-11.25	11.25	-3.75	3.75
2022	-97.5	63.75	168.75	71.25	0	15	0	3.75
2023	-78.75	116.25	165	78.75	11.25	26.25	3.75	11.25
2024	-30	153.75	157.5	78.75	18.75	33.75	11.25	26.25
2025	-7.5	161.25	135	63.75	11.25	26.25	3.75	18.75
2026	37.5	161.25	105	48.75	-7.5	3.75	-15	3.75
2027	138.75	172.5	71.25	26.25	-30	-22.5	-37.5	-15
2028	142.5	135	45	11.25	-45	-33.75	-45	-22.5
2029	52.5	78.75	41.25	7.5	-48.75	-33.75	-45	-30
2030	48.75	101.25	41.25	7.5	-48.75	-30	-41.25	-22.5
2031	67.5	120	37.5	3.75	-52.5	-26.25	-33.75	-15
2032	52.5	101.25	37.5	-3.75	-52.5	-26.25	-33.75	-11.25
2033	15	131.25	30	-3.75	-48.75	-22.5	-30	-11.25
2034	-7.5	202.5	15	-11.25	-52.5	-26.25	-41.25	-22.5
2035	-11.25	225	22.5	-11.25	-52.5	-26.25	-45	-22.5
2036	11.25	221.25	26.25	-11.25	-56.25	-30	-48.75	-26.25
2037	3.75	202.5	15	-22.5	-63.75	-37.5	-60	-41.25
2038	-3.75	153.75	7.5	-37.5	-82.5	-56.25	-75	-52.5
2039	56.25	108.75	18.75	-33.75	-78.75	-56.25	-71.25	-41.25
2040	116.25	63.75	45	-11.25	-56.25	-37.5	-45	-15
2041	93.75	45	67.5	11.25	-41.25	-18.75	-30	-7.5
2042	60	45	52.5	3.75	-52.5	-30	-45	-22.5
2043	37.5	18.75	30	-15	-67.5	-45	-60	-37.5
2044	7.5	11.25	41.25	-22.5	-78.75	-56.25	-71.25	-48.75
2045	-18.75	41.25	60	-11.25	-71.25	-45	-60	-41.25
2046	-45	67.5	75	7.5	-48.75	-22.5	-37.5	-18.75
2047	-37.5	105	97.5	26.25	-26.25	3.75	-15	3.75
2048	-15	127.5	90	15	-33.75	-7.5	-26.25	-11.25
2049	-18.75	135	56.25	-18.75	-71.25	-41.25	-63.75	-45
2050	-3.75	131.25	30	-48.75	-101.25	-71.25	-90	-71.25
2051	45	108.75	3.75	-71.25	-127.5	-105	-120	-97.5
2052	67.5	90	-7.5	-78.75	-138.75	-123.75	-135	-105
2053	41.25	67.5	0	-71.25	-135	-116.25	-123.75	-93.75
2054	30	56.25	18.75	-56.25	-116.25	-93.75	-101.25	-78.75
2055	48.75	75	26.25	-48.75	-108.75	-82.5	-93.75	-71.25
2056	45	90	26.25	-52.5	-116.25	-90	-97.5	-82.5
2057	-22.5	56.25	37.5	-45	-108.75	-82.5	-90	-67.5
2058	-123.75	0	56.25	-37.5	-93.75	-63.75	-71.25	-48.75
2059	-165	-22.5	60	-30	-90	-60	-71.25	-45
2060	-120	-3.75	56.25	-30	-86.25	-63.75	-75	-52.5
2061	-75	26.25	48.75	-37.5	-93.75	-67.5	-82.5	-60
2062	-11.25	41.25	41.25	-37.5	-90	-67.5	-82.5	-52.5
2063	82.5	45	41.25	-26.25	-82.5	-63.75	-75	-48.75
2064	112.5	37.5	60	-15	-75	-60	-67.5	-41.25
2065	75	30	71.25	-11.25	-71.25	-56.25	-67.5	-41.25
2066	37.5	30	67.5	-15	-75	-63.75	-71.25	-48.75
2067	30	11.25	56.25	-26.25	-90	-71.25	-82.5	-60
2068	63.75	48.75	60	-30	-90	-71.25	-82.5	-60
2069	41.25	97.5	67.5	-18.75	-75	-60	-71.25	-52.5
2070	-18.75	97.5	67.5	-11.25	-67.5	-48.75	-67.5	-48.75
2071	-48.75	93.75	63.75	-11.25	-71.25	-48.75	-67.5	-45
2072	-45	112.5	56.25	-22.5	-75	-52.5	-71.25	-45
2073	-26.25	131.25	45	-33.75	-86.25	-67.5	-82.5	-52.5
2074	22.5	127.5	26.25	-48.75	-105	-78.75	-93.75	-67.5
2075	101.25	105	11.25	-60	-120	-101.25	-108.75	-82.5
2076	112.5	86.25	18.75	-52.5	-123.75	-116.25	-123.75	-93.75
2077	71.25	78.75	52.5	-18.75	-112.5	-120	-135	-112.5
2078	48.75	33.75	123.75	52.5	-86.25	-120	-150	-131.25
2079	67.5	-30	221.25	150	-52.5	-116.25	-153.75	-142.5
2080	75	-86.25	315	232.5	-30	-131.25	-180	-168.75
2081	48.75	-82.5	393.75	300	-15	-146.25	-206.25	-187.5
2082	30	-18.75	457.5	375	26.25	-127.5	-198.75	-180
2083	52.5	60	517.5	465	86.25	-86.25	-168.75	-153.75
2084	101.25	127.5	555	555	157.5	-37.5	-127.5	-112.5
2085	131.25	176.25	570	618.75	217.5	11.25	-82.5	-75
2086	195	251.25	577.5	667.5	270	63.75	-33.75	-30
2087	315	345	588.75	716.25	322.5	123.75	26.25	26.25
2088	360	405	611.25	798.75	408.75	213.75	120	108.75
2089	348.75	468.75	618.75	885	532.5	352.5	258.75	228.75
2090	397.5	592.5	581.25	888.75	637.5	502.5	408.75	363.75
2091	446.25	701.25	483.75	802.5	705	630	551.25	495
2092	480	783.75	356.25	697.5	780	780	712.5	645
2093	491.25	937.5	288.75	682.5	922.5	986.25	918.75	828.75
2094	476.25	1147.5	232.5	663.75	1057.5	1192.5	1132.5	1020
2095	468.75	1376.25	75	491.25	1098.75	1357.5	1335	1218.75
2096	532.5	1631.25	-180	172.5	1053.75	1481.25	1518.75	1410
2097	581.25	1762.5	-438.75	-172.5	993.75	1586.25	1676.25	1563.75
2098	596.25	1792.5	-663.75	-461.25	975	1713.75	1830	1695
2099	603.75	1822.5	-821.25	-633.75	1016.25	1856.25	1972.5	1796.25
2100	555	1796.25	-843.75	-652.5	1110	1995	2085	1852.5
2101	453.75	1698.75	-836.25	-652.5	1192.5	2096.25	2148.75	1856.25
2102	363.75	1612.5	-911.25	-757.5	1177.5	2111.25	2137.5	1807.5
2103	300	1503.75	-1005	-888.75	1057.5	1980	1995	1665
2104	225	1316.25	-971.25	-907.5	907.5	1728.75	1732.5	1436.25
2105	93.75	1098.75	-896.25	-911.25	678.75	1380	1387.5	1158.75
2106	-33.75	903.75	-881.25	-997.5	341.25	941.25	997.5	866.25
2107	-105	750	-862.5	-1095	-22.5	495	615	588.75
2108	-120	603.75	-817.5	-1136.25	-285	165	318.75	367.5
2109	-112.5	457.5	-742.5	-1076.25	-371.25	7.5	146.25	217.5
2110	-63.75	371.25	-663.75	-956.25	-337.5	-37.5	56.25	116.25
2111	7.5	311.25	-626.25	-847.5	-292.5	-56.25	-3.75	41.25
2112	37.5	262.5	-577.5	-720	-221.25	-15	11.25	37.5
2113	11.25	217.5	-491.25	-588.75	-153.75	41.25	60	71.25
2114	-3.75	168.75	-420	-498.75	-135	48.75	75	78.75
2115	26.25	168.75	-356.25	-416.25	-123.75	45	71.25	71.25
2116	56.25	198.75	-281.25	-311.25	-71.25	67.5	82.5	86.25
2117	41.25	213.75	-210	-206.25	-11.25	101.25	108.75	108.75
2118	0	243.75	-153.75	-123.75	41.25	138.75	135	131.25
2119	-26.25	262.5	-101.25	-56.25	78.75	161.25	146.25	138.75
2120	11.25	270	-45	0	108.75	168.75	142.5	131.25
2121	90	303.75	11.25	52.5	135	180	146.25	131.25
2122	153.75	318.75	37.5	71.25	135	172.5	131.25	120
2123	176.25	251.25	22.5	52.5	97.5	123.75	86.25	78.75
2124	168.75	202.5	26.25	45	71.25	90	56.25	52.5
2125	123.75	183.75	45	60	71.25	82.5	48.75	45
2126	90	168.75	75	82.5	82.5	90	52.5	48.75
2127	123.75	210	101.25	105	93.75	93.75	56.25	48.75
2128	157.5	277.5	112.5	116.25	90	90	56.25	48.75
2129	123.75	292.5	108.75	116.25	86.25	82.5	52.5	48.75
2130	71.25	266.25	108.75	120	90	86.25	60	52.5
2131	71.25	273.75	127.5	138.75	105	105	71.25	63.75
2132	97.5	285	138.75	150	112.5	116.25	75	63.75
2133	101.25	243.75	135	146.25	101.25	101.25	56.25	45
2134	127.5	217.5	131.25	142.5	93.75	82.5	41.25	30
2135	195	206.25	108.75	120	60	45	7.5	7.5
2136	191.25	157.5	97.5	112.5	45	26.25	-3.75	0
2137	131.25	127.5	116.25	127.5	56.25	45	11.25	15
2138	131.25	150	138.75	150	75	63.75	30	30
2139	180	180	150	161.25	90	75	41.25	37.5
2140	191.25	198.75	161.25	172.5	97.5	82.5	48.75	37.5
2141	135	191.25	172.5	187.5	108.75	97.5	60	48.75
2142	75	176.25	176.25	195	116.25	101.25	63.75	52.5
2143	63.75	187.5	180	198.75	116.25	105	63.75	52.5
2144	97.5	206.25	168.75	187.5	108.75	93.75	56.25	45
2145	131.25	236.25	150	168.75	90	78.75	41.25	33.75
2146	176.25	277.5	135	161.25	82.5	67.5	30	26.25
2147	206.25	281.25	116.25	142.5	60	45	11.25	11.25
2148	165	243.75	105	131.25	45	26.25	-7.5	-7.5
2149	146.25	225	123.75	153.75	67.5	45	15	7.5
2150	161.25	225	150	180	93.75	78.75	45	37.5
2151	150	191.25	168.75	198.75	108.75	97.5	63.75	60
2152	153.75	153.75	172.5	206.25	116.25	105	75	67.5
2153	165	180	187.5	228.75	138.75	127.5	93.75	82.5
2154	116.25	217.5	202.5	240	153.75	142.5	108.75	93.75
2155	75	236.25	195	232.5	146.25	138.75	101.25	86.25
2156	108.75	258.75	183.75	228.75	146.25	135	90	75
2157	146.25	266.25	180	228.75	146.25	131.25	82.5	67.5
2158	198.75	273.75	168.75	225	135	116.25	71.25	63.75
2159	270	258.75	138.75	202.5	108.75	86.25	48.75	45
2160	266.25	221.25	131.25	191.25	97.5	71.25	37.5	30
2161	213.75	210	142.5	202.5	108.75	86.25	56.25	45
2162	198.75	206.25	157.5	217.5	123.75	101.25	75	60
2163	232.5	217.5	168.75	232.5	142.5	123.75	90	75
2164	225	236.25	183.75	247.5	153.75	135	97.5	78.75
2165	161.25	236.25	180	251.25	153.75	131.25	90	71.25
2166	120	247.5	180	255	161.25	138.75	97.5	75
2167	105	273.75	180	258.75	161.25	138.75	97.5	78.75
2168	138.75	300	172.5	251.25	157.5	131.25	90	75
2169	183.75	307.5	172.5	258.75	161.25	138.75	93.75	82.5
2170	247.5	322.5	180	270	172.5	146.25	105	93.75
2171	322.5	333.75	153.75	247.5	150	123.75	86.25	82.5
2172	318.75	303.75	138.75	228.75	135	108.75	75	67.5
2173	258.75	266.25	138.75	232.5	138.75	116.25	78.75	71.25
2174	247.5	270	150	251.25	157.5	135	101.25	86.25
2175	273.75	262.5	172.5	273.75	176.25	161.25	120	101.25
2176	292.5	251.25	202.5	296.25	202.5	183.75	142.5	120
2177	255	251.25	213.75	315	217.5	202.5	157.5	131.25
2178	198.75	270	217.5	322.5	228.75	213.75	165	135
2179	161.25	300	221.25	330	240	225	172.5	142.5
2180	161.25	318.75	202.5	318.75	225	213.75	157.5	135
2181	180	311.25	191.25	311.25	217.5	202.5	146.25	127.5
2182	213.75	296.25	187.5	315	217.5	195	146.25	127.5
2183	296.25	307.5	172.5	307.5	206.25	180	138.75	123.75
2184	363.75	326.25	165	303.75	195	172.5	131.25	116.25
2185	333.75	315	172.5	307.5	202.5	176.25	138.75	116.25
2186	292.5	311.25	165	300	195	172.5	131.25	108.75
2187	288.75	333.75	153.75	292.5	187.5	165	120	97.5
2188	270	356.25	150	292.5	180	157.5	108.75	90
2189	221.25	363.75	150	296.25	187.5	165	120	101.25
2190	176.25	348.75	172.5	322.5	217.5	198.75	150	131.25
2191	168.75	352.5	191.25	345	240	221.25	172.5	153.75
2192	198.75	363.75	187.5	345	243.75	228.75	172.5	153.75
2193	240	371.25	187.5	352.5	251.25	232.5	183.75	161.25
2194	307.5	363.75	198.75	363.75	262.5	247.5	195	172.5
2195	367.5	296.25	191.25	363.75	255	240	191.25	172.5
2196	397.5	270	195	367.5	255	240	195	176.25
2197	367.5	300	198.75	375	262.5	247.5	206.25	176.25
2198	333.75	322.5	198.75	375	262.5	251.25	210	176.25
2199	378.75	371.25	202.5	382.5	273.75	258.75	217.5	191.25
2200	416.25	412.5	210	393.75	281.25	266.25	225	195
2201	352.5	393.75	210	390	277.5	270	221.25	187.5
2202	277.5	378.75	213.75	390	281.25	270	217.5	183.75
2203	258.75	401.25	202.5	386.25	273.75	258.75	202.5	176.25
2204	270	412.5	191.25	375	258.75	247.5	195	172.5
2205	277.5	401.25	195	378.75	262.5	247.5	195	172.5
2206	326.25	405	195	382.5	262.5	243.75	191.25	172.5
2207	412.5	408.75	180	371.25	247.5	225	180	165
2208	442.5	393.75	168.75	356.25	225	206.25	168.75	161.25
2209	408.75	378.75	180	356.25	225	210	176.25	168.75
2210	371.25	360	180	356.25	228.75	217.5	183.75	172.5
2211	337.5	337.5	183.75	363.75	236.25	228.75	187.5	172.5
2212	326.25	337.5	191.25	371.25	243.75	240	198.75	183.75
2213	326.25	356.25	198.75	375	247.5	247.5	206.25	195
2214	318.75	371.25	221.25	393.75	266.25	270	228.75	213.75
2215	307.5	382.5	240	412.5	288.75	292.5	247.5	228.75
2216	318.75	401.25	236.25	412.5	285	285	240	221.25
2217	341.25	405	217.5	390	262.5	262.5	213.75	198.75
2218	375	401.25	198.75	367.5	240	236.25	191.25	183.75
2219	442.5	401.25	183.75	352.5	213.75	210	172.5	172.5
2220	461.25	386.25	180	345	202.5	195	165	168.75
2221	431.25	382.5	195	356.25	210	206.25	176.25	176.25
2222	408.75	378.75	202.5	352.5	210	213.75	180	176.25
2223	401.25	367.5	198.75	348.75	206.25	206.25	176.25	168.75
2224	393.75	352.5	210	360	210	213.75	187.5	176.25
2225	352.5	360	217.5	360	213.75	213.75	191.25	183.75
2226	311.25	382.5	225	360	213.75	221.25	191.25	187.5
2227	285	397.5	232.5	363.75	213.75	221.25	191.25	187.5
2228	288.75	408.75	236.25	360	213.75	221.25	187.5	183.75
2229	322.5	420	232.5	356.25	206.25	213.75	180	180
2230	360	427.5	221.25	345	191.25	195	165	168.75
2231	420	431.25	202.5	315	161.25	165	138.75	146.25
2232	420	386.25	195	300	146.25	146.25	120	127.5
2233	371.25	360	213.75	311.25	153.75	150	120	123.75
2234	345	363.75	225	315	157.5	153.75	123.75	123.75
2235	318.75	333.75	228.75	311.25	157.5	150	123.75	120
2236	307.5	318.75	232.5	307.5	150	142.5	116.25	116.25
2237	318.75	348.75	251.25	315	157.5	153.75	127.5	127.5
2238	273.75	360	270	330	172.5	168.75	142.5	138.75
2239	202.5	341.25	270	322.5	168.75	165	135	127.5
2240	187.5	337.5	255	300	150	146.25	112.5	108.75
2241	213.75	363.75	240	285	135	131.25	101.25	97.5
2242	258.75	393.75	236.25	281.25	131.25	123.75	93.75	93.75
2243	330	390	217.5	258.75	108.75	93.75	63.75	67.5
2244	311.25	315	191.25	228.75	78.75	67.5	41.25	48.75
2245	251.25	243.75	210	240	90	82.5	60	63.75
2246	277.5	281.25	247.5	270	120	108.75	86.25	93.75
2247	326.25	330	258.75	285	135	120	97.5	101.25
2248	326.25	311.25	262.5	281.25	135	123.75	105	108.75
2249	292.5	292.5	277.5	285	142.5	138.75	116.25	120
2250	221.25	296.25	277.5	285	150	142.5	116.25	112.5
2251	172.5	311.25	270	277.5	146.25	142.5	108.75	108.75
2252	198.75	326.25	258.75	262.5	131.25	127.5	93.75	93.75
2253	221.25	348.75	243.75	243.75	116.25	108.75	75	75
2254	225	348.75	232.5	225	101.25	90	60	63.75
2255	270	311.25	210	198.75	75	63.75	37.5	45
2256	285	266.25	202.5	187.5	63.75	48.75	26.25	37.5
2257	236.25	270	206.25	180	56.25	45	26.25	33.75
2258	198.75	270	195	165	48.75	41.25	22.5	22.5
2259	213.75	258.75	202.5	168.75	52.5	48.75	26.25	22.5
2260	236.25	258.75	217.5	183.75	67.5	60	30	30
2261	213.75	262.5	232.5	202.5	86.25	78.75	48.75	45
2262	142.5	240	243.75	213.75	101.25	97.5	67.5	63.75
2263	101.25	202.5	247.5	210	97.5	93.75	63.75	63.75
2264	135	228.75	236.25	195	90	82.5	52.5	56.25
2265	183.75	292.5	225	183.75	78.75	75	41.25	52.5
2266	225	303.75	206.25	172.5	67.5	63.75	30	45
2267	288.75	273.75	180	142.5	41.25	37.5	7.5	26.25
2268	296.25	251.25	161.25	120	18.75	11.25	-11.25	7.5
2269	240	251.25	165	123.75	18.75	15	-7.5	3.75
2270	210	262.5	168.75	120	15	11.25	-15	-7.5
2271	217.5	281.25	157.5	105	3.75	0	-30	-22.5
2272	221.25	285	168.75	116.25	11.25	7.5	-18.75	-11.25
2273	172.5	258.75	183.75	127.5	22.5	18.75	-7.5	3.75
2274	112.5	273.75	198.75	138.75	37.5	33.75	7.5	15
2275	97.5	315	198.75	135	41.25	45	11.25	18.75
2276	108.75	311.25	183.75	123.75	33.75	37.5	7.5	18.75
2277	135	288.75	180	123.75	30	37.5	7.5	22.5
2278	165	243.75	180	127.5	33.75	41.25	11.25	22.5
2279	221.25	180	187.5	135	45	48.75	18.75	26.25
2280	247.5	138.75	187.5	131.25	37.5	41.25	15	26.25
2281	213.75	138.75	183.75	127.5	30	30	7.5	15
2282	198.75	153.75	195	135	41.25	41.25	18.75	26.25
2283	187.5	150	198.75	138.75	45	45	22.5	30
2284	191.25	172.5	187.5	123.75	26.25	26.25	-3.75	7.5
2285	168.75	198.75	187.5	123.75	30	30	0	7.5
2286	127.5	225	195	131.25	41.25	45	11.25	18.75
2287	131.25	281.25	202.5	142.5	56.25	63.75	26.25	33.75
2288	150	311.25	202.5	146.25	60	71.25	33.75	37.5
2289	131.25	303.75	187.5	138.75	56.25	63.75	26.25	33.75
2290	146.25	300	176.25	123.75	41.25	45	7.5	15
2291	243.75	303.75	165	108.75	26.25	30	-3.75	3.75
2292	288.75	285	157.5	105	18.75	18.75	-11.25	3.75
2293	225	236.25	161.25	105	18.75	22.5	-7.5	3.75
