samplenr	I	II	V1	V2	V3	V4	V5	V6	measurement
0	281.25	146.25	26.25	-3.75	78.75	-30	-33.75	-18.75
1	277.5	146.25	26.25	-7.5	71.25	-30	-33.75	-18.75
2	251.25	123.75	26.25	-15	63.75	-37.5	-45	-30
3	243.75	112.5	30	-18.75	63.75	-37.5	-45	-33.75
4	236.25	112.5	26.25	-22.5	60	-41.25	-48.75	-37.5
5	217.5	108.75	30	-22.5	56.25	-48.75	-52.5	-41.25
6	213.75	105	30	-22.5	56.25	-52.5	-60	-48.75
7	228.75	120	33.75	-18.75	56.25	-52.5	-60	-48.75
8	210	105	26.25	-22.5	48.75	-60	-67.5	-52.5
9	195	71.25	11.25	-33.75	37.5	-71.25	-78.75	-63.75
10	176.25	45	7.5	-45	30	-75	-86.25	-71.25
11	138.75	26.25	7.5	-45	30	-75	-86.25	-71.25
12	153.75	48.75	15	-41.25	33.75	-71.25	-82.5	-67.5
13	195	75	18.75	-37.5	37.5	-67.5	-78.75	-60
14	202.5	71.25	18.75	-41.25	33.75	-67.5	-82.5	-63.75
15	172.5	37.5	7.5	-52.5	22.5	-78.75	-93.75	-78.75
16	172.5	37.5	7.5	-52.5	22.5	-78.75	-93.75	-78.75
17	183.75	48.75	11.25	-48.75	30	-75	-86.25	-75
18	180	48.75	11.25	-45	30	-75	-86.25	-71.25
19	180	60	18.75	-37.5	37.5	-67.5	-82.5	-67.5
20	161.25	45	11.25	-41.25	33.75	-75	-90	-71.25
21	172.5	48.75	11.25	-41.25	33.75	-75	-86.25	-67.5
22	187.5	60	11.25	-41.25	33.75	-71.25	-82.5	-67.5
23	168.75	41.25	7.5	-45	30	-78.75	-90	-71.25
24	176.25	45	7.5	-45	30	-75	-86.25	-71.25
25	180	60	15	-37.5	41.25	-67.5	-78.75	-63.75
26	142.5	33.75	11.25	-45	37.5	-71.25	-82.5	-71.25
27	127.5	11.25	3.75	-56.25	22.5	-78.75	-90	-78.75
28	153.75	26.25	3.75	-56.25	22.5	-78.75	-90	-78.75
29	157.5	37.5	11.25	-45	33.75	-71.25	-82.5	-71.25
30	150	52.5	26.25	-30	48.75	-56.25	-71.25	-60
31	150	56.25	30	-26.25	52.5	-56.25	-67.5	-52.5
32	168.75	60	18.75	-30	45	-63.75	-75	-60
33	172.5	48.75	7.5	-41.25	33.75	-75	-86.25	-71.25
34	138.75	18.75	-3.75	-52.5	22.5	-86.25	-97.5	-86.25
35	138.75	7.5	3.75	-48.75	18.75	-90	-105	-93.75
36	187.5	22.5	30	-26.25	30	-86.25	-105	-93.75
37	198.75	15	71.25	11.25	41.25	-97.5	-123.75	-112.5
38	161.25	-26.25	120	48.75	45	-116.25	-150	-146.25
39	146.25	-60	172.5	90	45	-138.75	-176.25	-176.25
40	161.25	-67.5	221.25	127.5	41.25	-157.5	-202.5	-202.5
41	172.5	-56.25	262.5	168.75	56.25	-161.25	-213.75	-206.25
42	191.25	-18.75	303.75	236.25	101.25	-135	-191.25	-183.75
43	217.5	45	348.75	318.75	165	-86.25	-146.25	-142.5
44	251.25	90	371.25	390	225	-33.75	-101.25	-101.25
45	273.75	90	367.5	431.25	273.75	11.25	-56.25	-67.5
46	300	138.75	382.5	480	333.75	86.25	15	-7.5
47	386.25	262.5	408.75	543.75	416.25	176.25	105	82.5
48	495	371.25	412.5	603.75	495	266.25	202.5	176.25
49	547.5	431.25	375	637.5	570	363.75	303.75	273.75
50	585	532.5	337.5	663.75	660	483.75	427.5	390
51	645	663.75	281.25	663.75	746.25	611.25	562.5	525
52	686.25	791.25	213.75	663.75	843.75	753.75	716.25	675
53	705	960	206.25	727.5	986.25	933.75	896.25	840
54	716.25	1155	165	742.5	1102.5	1102.5	1087.5	1027.5
55	787.5	1410	48.75	675	1177.5	1275	1297.5	1252.5
56	915	1665	-75	588.75	1248.75	1443.75	1503.75	1470
57	982.5	1766.25	-213.75	431.25	1263.75	1552.5	1642.5	1605
58	945	1788.75	-352.5	247.5	1256.25	1638.75	1751.25	1710
59	843.75	1766.25	-397.5	183.75	1301.25	1728.75	1833.75	1766.25
60	735	1687.5	-371.25	202.5	1368.75	1792.5	1860	1751.25
61	652.5	1601.25	-378.75	161.25	1383.75	1807.5	1848.75	1706.25
62	577.5	1500	-435	45	1323.75	1747.5	1773.75	1620
63	480	1346.25	-476.25	-90	1185	1578.75	1601.25	1455
64	363.75	1162.5	-438.75	-168.75	1016.25	1338.75	1350	1230
65	243.75	963.75	-393.75	-247.5	798.75	1050	1065	982.5
66	153.75	776.25	-405	-397.5	498.75	708.75	761.25	738.75
67	93.75	626.25	-431.25	-573.75	183.75	371.25	468.75	513.75
68	18.75	476.25	-435	-682.5	-33.75	131.25	247.5	330
69	-56.25	296.25	-423.75	-690	-127.5	-7.5	82.5	165
70	-86.25	150	-412.5	-652.5	-146.25	-78.75	-22.5	41.25
71	-60	108.75	-405	-592.5	-116.25	-78.75	-45	-3.75
72	0	138.75	-378.75	-502.5	-52.5	-30	-15	15
73	48.75	161.25	-341.25	-427.5	-11.25	0	11.25	33.75
74	67.5	138.75	-318.75	-390	-18.75	-7.5	7.5	26.25
75	67.5	105	-281.25	-348.75	-26.25	-22.5	-3.75	11.25
76	60	90	-240	-292.5	-3.75	-18.75	-7.5	7.5
77	63.75	97.5	-202.5	-225	33.75	0	3.75	18.75
78	101.25	123.75	-165	-157.5	78.75	30	26.25	33.75
79	165	168.75	-123.75	-86.25	127.5	63.75	52.5	52.5
80	198.75	187.5	-75	-22.5	168.75	86.25	71.25	67.5
81	195	176.25	-33.75	18.75	187.5	93.75	75	67.5
82	172.5	146.25	-22.5	18.75	176.25	78.75	56.25	48.75
83	138.75	97.5	-22.5	15	165	60	37.5	30
84	97.5	48.75	-22.5	15	153.75	45	18.75	11.25
85	112.5	48.75	-11.25	18.75	150	41.25	15	7.5
86	161.25	78.75	7.5	30	153.75	45	18.75	11.25
87	142.5	63.75	11.25	26.25	146.25	33.75	7.5	0
88	150	71.25	22.5	33.75	146.25	33.75	7.5	0
89	183.75	93.75	30	41.25	146.25	33.75	7.5	-3.75
90	180	75	26.25	33.75	138.75	18.75	-7.5	-18.75
91	172.5	75	26.25	33.75	135	15	-15	-18.75
92	176.25	86.25	30	45	138.75	18.75	-7.5	-15
93	172.5	67.5	22.5	37.5	127.5	3.75	-18.75	-22.5
94	172.5	63.75	18.75	33.75	120	0	-26.25	-30
95	165	60	22.5	30	120	-3.75	-30	-33.75
96	142.5	37.5	15	26.25	112.5	-15	-45	-41.25
97	127.5	15	11.25	22.5	105	-22.5	-45	-45
98	157.5	26.25	18.75	22.5	105	-18.75	-37.5	-41.25
99	180	41.25	26.25	30	112.5	-3.75	-26.25	-33.75
100	153.75	22.5	18.75	26.25	108.75	-7.5	-30	-45
101	131.25	26.25	26.25	33.75	116.25	0	-22.5	-37.5
102	142.5	52.5	45	52.5	135	15	-7.5	-18.75
103	180	60	37.5	48.75	127.5	7.5	-18.75	-26.25
104	180	48.75	22.5	41.25	116.25	-7.5	-30	-37.5
105	138.75	7.5	3.75	26.25	101.25	-22.5	-45	-48.75
106	123.75	-11.25	0	18.75	93.75	-26.25	-48.75	-52.5
107	146.25	26.25	18.75	41.25	116.25	-3.75	-30	-30
108	180	56.25	22.5	48.75	123.75	3.75	-22.5	-26.25
109	176.25	41.25	18.75	37.5	116.25	-3.75	-30	-33.75
110	165	33.75	18.75	37.5	116.25	0	-30	-33.75
111	187.5	52.5	22.5	41.25	123.75	7.5	-18.75	-26.25
112	176.25	45	30	48.75	127.5	11.25	-15	-22.5
113	157.5	22.5	22.5	45	123.75	0	-26.25	-33.75
114	150	15	22.5	48.75	127.5	3.75	-22.5	-30
115	172.5	41.25	22.5	56.25	131.25	11.25	-15	-22.5
116	202.5	78.75	33.75	71.25	146.25	22.5	0	-7.5
117	198.75	67.5	30	71.25	146.25	22.5	-3.75	-7.5
118	187.5	41.25	18.75	60	135	11.25	-15	-18.75
119	176.25	37.5	15	60	135	15	-11.25	-18.75
120	180	52.5	22.5	71.25	146.25	26.25	0	-7.5
121	198.75	56.25	18.75	67.5	146.25	22.5	-3.75	-11.25
122	198.75	45	15	60	138.75	18.75	-7.5	-15
123	195	52.5	18.75	63.75	142.5	26.25	-3.75	-11.25
124	187.5	56.25	26.25	75	153.75	33.75	7.5	0
125	165	30	15	67.5	142.5	26.25	-3.75	-11.25
126	135	0	3.75	56.25	131.25	11.25	-18.75	-26.25
127	172.5	41.25	11.25	71.25	146.25	26.25	-3.75	-11.25
128	195	63.75	15	82.5	153.75	33.75	3.75	-3.75
129	157.5	37.5	11.25	78.75	153.75	30	0	-3.75
130	161.25	30	3.75	71.25	146.25	22.5	-3.75	-11.25
131	198.75	52.5	7.5	78.75	153.75	33.75	3.75	0
132	232.5	93.75	26.25	101.25	176.25	56.25	26.25	22.5
133	221.25	97.5	33.75	112.5	183.75	67.5	33.75	33.75
134	191.25	63.75	26.25	97.5	172.5	60	26.25	22.5
135	195	52.5	18.75	90	168.75	52.5	18.75	15
136	198.75	52.5	18.75	93.75	172.5	56.25	22.5	15
137	202.5	63.75	26.25	101.25	180	60	26.25	18.75
138	228.75	90	26.25	108.75	187.5	67.5	33.75	26.25
139	221.25	90	26.25	116.25	191.25	71.25	41.25	33.75
140	195	78.75	26.25	120	195	71.25	41.25	33.75
141	202.5	78.75	22.5	120	195	71.25	41.25	33.75
142	202.5	78.75	22.5	120	195	78.75	45	37.5
143	195	60	7.5	112.5	187.5	67.5	37.5	30
144	217.5	67.5	3.75	108.75	187.5	63.75	30	30
145	228.75	78.75	11.25	116.25	195	75	41.25	37.5
146	232.5	71.25	3.75	108.75	187.5	71.25	37.5	30
147	195	48.75	3.75	108.75	191.25	75	37.5	30
148	183.75	56.25	15	116.25	198.75	82.5	48.75	37.5
149	247.5	101.25	22.5	127.5	206.25	90	52.5	45
150	270	108.75	18.75	131.25	210	90	56.25	48.75
151	247.5	105	15	135	210	90	60	52.5
152	255	116.25	15	138.75	217.5	97.5	63.75	56.25
153	255	116.25	15	142.5	217.5	101.25	67.5	63.75
154	236.25	105	15	142.5	217.5	101.25	67.5	63.75
155	236.25	93.75	7.5	135	213.75	93.75	63.75	60
156	236.25	86.25	3.75	135	213.75	93.75	63.75	60
157	247.5	101.25	7.5	138.75	217.5	101.25	71.25	67.5
158	273.75	120	15	146.25	225	108.75	78.75	75
159	251.25	93.75	7.5	138.75	221.25	101.25	71.25	71.25
160	240	82.5	3.75	135	217.5	97.5	71.25	67.5
161	255	93.75	3.75	142.5	217.5	101.25	75	75
162	255	97.5	3.75	146.25	221.25	108.75	86.25	82.5
163	262.5	120	11.25	153.75	228.75	120	93.75	90
164	281.25	135	11.25	161.25	236.25	123.75	97.5	90
165	288.75	127.5	3.75	150	228.75	116.25	90	86.25
166	285	123.75	0	146.25	221.25	112.5	86.25	86.25
167	300	146.25	7.5	153.75	232.5	123.75	97.5	97.5
168	296.25	142.5	3.75	153.75	228.75	123.75	97.5	101.25
169	281.25	120	0	146.25	225	116.25	93.75	97.5
170	288.75	120	0	142.5	221.25	116.25	93.75	93.75
171	285	116.25	0	142.5	217.5	116.25	97.5	93.75
172	288.75	127.5	-11.25	131.25	210	105	86.25	86.25
173	292.5	150	-7.5	135	213.75	108.75	93.75	90
174	288.75	146.25	7.5	150	225	123.75	105	105
175	270	116.25	0	146.25	217.5	116.25	101.25	101.25
176	251.25	90	-15	131.25	202.5	93.75	82.5	86.25
177	277.5	105	-15	131.25	198.75	93.75	82.5	90
178	315	138.75	0	142.5	213.75	108.75	97.5	105
179	311.25	142.5	3.75	142.5	213.75	112.5	101.25	108.75
180	296.25	131.25	-3.75	138.75	206.25	108.75	97.5	101.25
181	255	97.5	-7.5	131.25	198.75	101.25	90	97.5
182	228.75	56.25	-22.5	105	176.25	78.75	71.25	78.75
183	258.75	75	-22.5	105	176.25	82.5	71.25	78.75
184	311.25	150	11.25	135	202.5	108.75	97.5	105
185	337.5	191.25	26.25	150	217.5	120	112.5	116.25
186	322.5	176.25	15	138.75	202.5	105	97.5	105
187	292.5	150	7.5	131.25	195	97.5	90	97.5
188	285	127.5	3.75	131.25	191.25	90	86.25	97.5
189	281.25	116.25	-3.75	123.75	180	82.5	75	90
190	307.5	135	-3.75	120	180	78.75	71.25	86.25
191	348.75	168.75	3.75	120	180	82.5	75	90
192	337.5	172.5	7.5	120	180	82.5	75	90
193	307.5	142.5	7.5	116.25	172.5	75	71.25	86.25
194	292.5	116.25	3.75	105	165	67.5	60	75
195	270	97.5	3.75	101.25	157.5	60	52.5	67.5
196	240	82.5	11.25	101.25	157.5	60	52.5	63.75
197	232.5	86.25	18.75	105	161.25	60	48.75	63.75
198	247.5	108.75	30	116.25	165	60	52.5	67.5
199	251.25	127.5	37.5	120	168.75	60	56.25	67.5
200	243.75	112.5	37.5	120	165	60	52.5	63.75
201	247.5	93.75	26.25	108.75	150	41.25	33.75	48.75
202	232.5	75	22.5	101.25	142.5	30	22.5	37.5
203	217.5	67.5	30	101.25	142.5	30	18.75	33.75
204	213.75	67.5	33.75	101.25	138.75	30	18.75	33.75
205	210	63.75	37.5	101.25	142.5	26.25	15	30
206	187.5	41.25	37.5	93.75	135	22.5	7.5	18.75
207	161.25	18.75	33.75	82.5	123.75	11.25	-3.75	3.75
208	153.75	3.75	26.25	71.25	112.5	-3.75	-18.75	-11.25
209	146.25	3.75	33.75	75	116.25	-3.75	-18.75	-11.25
210	150	37.5	56.25	97.5	135	15	-3.75	3.75
211	150	45	60	105	142.5	15	-7.5	3.75
212	150	15	41.25	86.25	120	-11.25	-26.25	-15
213	161.25	7.5	30	67.5	101.25	-26.25	-41.25	-26.25
214	165	11.25	37.5	71.25	105	-18.75	-33.75	-22.5
215	138.75	-3.75	33.75	67.5	105	-18.75	-33.75	-26.25
216	116.25	-15	37.5	67.5	105	-18.75	-37.5	-33.75
217	131.25	3.75	48.75	71.25	112.5	-11.25	-30	-30
218	153.75	11.25	52.5	67.5	112.5	-11.25	-30	-30
219	112.5	-33.75	37.5	45	90	-33.75	-56.25	-52.5
220	63.75	-71.25	30	33.75	78.75	-48.75	-67.5	-67.5
221	105	-26.25	45	48.75	93.75	-33.75	-56.25	-56.25
222	150	18.75	56.25	60	105	-18.75	-41.25	-45
223	123.75	-7.5	48.75	52.5	93.75	-33.75	-56.25	-52.5
224	86.25	-37.5	45	45	82.5	-48.75	-63.75	-60
225	78.75	-45	37.5	37.5	78.75	-52.5	-71.25	-67.5
226	82.5	-41.25	41.25	33.75	78.75	-48.75	-67.5	-63.75
227	86.25	-30	45	37.5	82.5	-45	-63.75	-60
228	105	-26.25	41.25	33.75	78.75	-48.75	-67.5	-63.75
229	82.5	-56.25	30	18.75	63.75	-60	-78.75	-75
230	41.25	-90	26.25	7.5	56.25	-63.75	-86.25	-82.5
231	41.25	-97.5	26.25	0	48.75	-75	-93.75	-93.75
232	45	-78.75	33.75	7.5	56.25	-67.5	-90	-86.25
233	33.75	-71.25	41.25	15	60	-63.75	-82.5	-82.5
234	52.5	-63.75	37.5	11.25	60	-67.5	-86.25	-86.25
235	71.25	-52.5	41.25	15	63.75	-63.75	-82.5	-82.5
236	37.5	-86.25	22.5	0	48.75	-78.75	-97.5	-93.75
237	18.75	-108.75	7.5	-15	33.75	-90	-108.75	-105
238	60	-71.25	22.5	-3.75	48.75	-75	-97.5	-90
239	63.75	-63.75	26.25	0	48.75	-71.25	-93.75	-90
240	30	-90	22.5	-7.5	41.25	-82.5	-101.25	-97.5
241	56.25	-71.25	26.25	-3.75	45	-75	-93.75	-90
242	52.5	-75	26.25	-11.25	45	-75	-97.5	-93.75
243	-3.75	-127.5	15	-26.25	26.25	-93.75	-116.25	-112.5
244	-22.5	-142.5	7.5	-30	22.5	-97.5	-123.75	-120
245	7.5	-97.5	22.5	-15	37.5	-82.5	-105	-105
246	45	-52.5	41.25	7.5	56.25	-63.75	-90	-86.25
247	45	-63.75	33.75	0	48.75	-75	-93.75	-93.75
248	26.25	-90	18.75	-11.25	37.5	-86.25	-108.75	-105
249	52.5	-75	15	-11.25	37.5	-86.25	-108.75	-105
250	82.5	-56.25	22.5	-7.5	45	-78.75	-101.25	-101.25
251	71.25	-60	22.5	-7.5	45	-75	-101.25	-97.5
252	41.25	-71.25	26.25	-7.5	48.75	-78.75	-101.25	-97.5
253	26.25	-90	15	-15	37.5	-86.25	-105	-105
254	26.25	-105	11.25	-22.5	33.75	-86.25	-108.75	-108.75
255	30	-105	15	-18.75	37.5	-82.5	-105	-105
256	15	-108.75	18.75	-15	41.25	-78.75	-105	-105
257	-7.5	-116.25	15	-15	41.25	-82.5	-105	-108.75
258	-15	-120	15	-15	37.5	-86.25	-108.75	-108.75
259	11.25	-97.5	18.75	-7.5	45	-78.75	-101.25	-101.25
260	63.75	-63.75	22.5	3.75	52.5	-67.5	-90	-93.75
261	75	-63.75	15	0	56.25	-71.25	-93.75	-93.75
262	33.75	-90	11.25	-7.5	52.5	-75	-101.25	-97.5
263	11.25	-101.25	11.25	-11.25	48.75	-78.75	-101.25	-101.25
264	56.25	-67.5	18.75	-3.75	52.5	-75	-97.5	-93.75
265	71.25	-45	26.25	3.75	63.75	-63.75	-86.25	-86.25
266	22.5	-90	11.25	-11.25	48.75	-75	-97.5	-101.25
267	11.25	-120	3.75	-18.75	41.25	-82.5	-105	-108.75
268	37.5	-97.5	15	-11.25	52.5	-71.25	-93.75	-97.5
269	48.75	-78.75	18.75	-3.75	60	-67.5	-90	-86.25
270	45	-75	18.75	0	60	-71.25	-90	-86.25
271	41.25	-71.25	18.75	0	60	-71.25	-90	-86.25
272	37.5	-75	18.75	3.75	63.75	-67.5	-86.25	-86.25
273	41.25	-82.5	15	0	63.75	-63.75	-82.5	-86.25
274	22.5	-93.75	15	0	63.75	-60	-78.75	-82.5
275	0	-90	18.75	3.75	71.25	-56.25	-75	-78.75
276	7.5	-112.5	3.75	-11.25	56.25	-71.25	-93.75	-93.75
277	22.5	-127.5	-7.5	-22.5	41.25	-82.5	-105	-105
278	52.5	-86.25	7.5	-11.25	56.25	-67.5	-90	-90
279	48.75	-78.75	22.5	-3.75	63.75	-60	-82.5	-86.25
280	30	-86.25	30	0	67.5	-60	-82.5	-86.25
281	18.75	-93.75	15	-3.75	60	-63.75	-86.25	-90
282	3.75	-112.5	7.5	-11.25	56.25	-71.25	-93.75	-97.5
283	30	-82.5	18.75	0	67.5	-60	-82.5	-86.25
284	63.75	-56.25	18.75	7.5	71.25	-56.25	-78.75	-78.75
285	37.5	-93.75	0	-11.25	52.5	-71.25	-93.75	-93.75
286	7.5	-116.25	-3.75	-15	52.5	-75	-97.5	-93.75
287	52.5	-78.75	7.5	-7.5	60	-60	-82.5	-82.5
288	105	-45	15	-3.75	63.75	-56.25	-78.75	-78.75
289	56.25	-97.5	-3.75	-18.75	48.75	-71.25	-93.75	-93.75
290	-7.5	-157.5	-15	-33.75	33.75	-82.5	-105	-108.75
291	18.75	-116.25	7.5	-18.75	56.25	-63.75	-86.25	-90
292	63.75	-67.5	22.5	-3.75	67.5	-48.75	-71.25	-75
293	60	-63.75	22.5	0	71.25	-45	-67.5	-75
294	33.75	-78.75	15	-3.75	67.5	-48.75	-75	-78.75
295	30	-82.5	11.25	-7.5	60	-60	-82.5	-82.5
296	41.25	-78.75	11.25	-3.75	60	-60	-82.5	-82.5
297	22.5	-108.75	-7.5	-22.5	45	-75	-97.5	-97.5
298	26.25	-105	-11.25	-30	41.25	-78.75	-101.25	-101.25
299	71.25	-60	3.75	-15	56.25	-63.75	-86.25	-86.25
300	75	-56.25	7.5	-11.25	60	-56.25	-78.75	-82.5
301	33.75	-97.5	-7.5	-26.25	45	-71.25	-93.75	-93.75
302	33.75	-112.5	-7.5	-33.75	41.25	-71.25	-93.75	-101.25
303	67.5	-75	3.75	-18.75	56.25	-56.25	-75	-82.5
304	60	-63.75	11.25	-15	60	-56.25	-78.75	-82.5
305	18.75	-86.25	15	-15	56.25	-60	-82.5	-86.25
306	41.25	-75	15	-11.25	60	-56.25	-75	-78.75
307	67.5	-71.25	7.5	-15	56.25	-63.75	-82.5	-82.5
308	41.25	-93.75	-3.75	-22.5	48.75	-71.25	-90	-90
309	52.5	-75	0	-18.75	56.25	-63.75	-78.75	-82.5
310	63.75	-67.5	3.75	-18.75	56.25	-60	-75	-75
311	33.75	-97.5	-7.5	-30	45	-75	-90	-90
312	26.25	-108.75	-11.25	-37.5	41.25	-75	-90	-90
313	30	-108.75	-11.25	-37.5	37.5	-75	-90	-90
314	33.75	-112.5	-15	-45	33.75	-78.75	-93.75	-93.75
315	45	-105	-11.25	-41.25	41.25	-75	-90	-93.75
316	71.25	-75	3.75	-30	48.75	-63.75	-78.75	-82.5
317	48.75	-71.25	11.25	-26.25	56.25	-60	-75	-78.75
318	15	-86.25	7.5	-22.5	56.25	-60	-71.25	-75
319	33.75	-78.75	0	-30	48.75	-67.5	-78.75	-82.5
320	52.5	-75	-7.5	-33.75	41.25	-75	-86.25	-90
321	45	-90	-15	-45	30	-82.5	-93.75	-97.5
322	48.75	-93.75	-22.5	-52.5	22.5	-86.25	-97.5	-101.25
323	48.75	-90	-18.75	-52.5	26.25	-86.25	-97.5	-97.5
324	30	-108.75	-26.25	-60	18.75	-93.75	-108.75	-105
325	22.5	-116.25	-22.5	-60	22.5	-93.75	-108.75	-97.5
326	33.75	-116.25	-18.75	-56.25	18.75	-90	-101.25	-97.5
327	37.5	-120	-18.75	-60	15	-90	-105	-101.25
328	48.75	-93.75	-15	-56.25	22.5	-82.5	-97.5	-101.25
329	45	-82.5	0	-41.25	33.75	-63.75	-86.25	-90
330	48.75	-78.75	-3.75	-41.25	37.5	-63.75	-82.5	-86.25
331	37.5	-86.25	-7.5	-45	30	-71.25	-86.25	-86.25
332	33.75	-90	-15	-48.75	26.25	-82.5	-97.5	-93.75
333	22.5	-108.75	-22.5	-60	18.75	-90	-105	-101.25
334	-11.25	-131.25	-26.25	-63.75	11.25	-90	-105	-101.25
335	11.25	-116.25	-22.5	-60	18.75	-86.25	-101.25	-97.5
336	71.25	-71.25	-11.25	-48.75	30	-75	-90	-90
337	82.5	-63.75	-7.5	-45	33.75	-67.5	-86.25	-82.5
338	52.5	-108.75	-26.25	-71.25	7.5	-93.75	-105	-101.25
339	52.5	-101.25	-22.5	-67.5	11.25	-90	-105	-101.25
340	45	-86.25	-15	-60	22.5	-78.75	-90	-93.75
341	-18.75	-138.75	-30	-75	7.5	-90	-101.25	-105
342	-15	-131.25	-22.5	-67.5	11.25	-90	-105	-105
343	45	-75	-11.25	-48.75	30	-75	-90	-90
344	45	-90	-26.25	-60	15	-90	-97.5	-97.5
345	45	-116.25	-37.5	-75	0	-105	-112.5	-108.75
346	86.25	-86.25	-37.5	-71.25	3.75	-97.5	-112.5	-101.25
347	82.5	-82.5	-33.75	-71.25	7.5	-93.75	-108.75	-97.5
348	37.5	-112.5	-33.75	-75	7.5	-97.5	-112.5	-97.5
349	11.25	-123.75	-30	-75	3.75	-97.5	-112.5	-101.25
350	7.5	-116.25	-18.75	-67.5	11.25	-90	-105	-101.25
351	33.75	-97.5	-15	-67.5	15	-86.25	-101.25	-101.25
352	45	-93.75	-18.75	-67.5	11.25	-86.25	-105	-101.25
353	45	-90	-22.5	-71.25	11.25	-90	-108.75	-101.25
354	30	-105	-22.5	-71.25	7.5	-93.75	-112.5	-101.25
355	-3.75	-135	-26.25	-71.25	3.75	-101.25	-120	-108.75
356	7.5	-123.75	-26.25	-67.5	7.5	-101.25	-116.25	-108.75
357	45	-93.75	-22.5	-63.75	11.25	-93.75	-108.75	-97.5
358	0	-150	-45	-86.25	-7.5	-108.75	-127.5	-116.25
359	-18.75	-172.5	-56.25	-97.5	-15	-116.25	-131.25	-123.75
360	45	-105	-30	-71.25	11.25	-93.75	-108.75	-93.75
361	71.25	-86.25	-30	-71.25	11.25	-90	-105	-90
362	52.5	-105	-33.75	-78.75	3.75	-93.75	-108.75	-101.25
363	45	-105	-26.25	-75	7.5	-90	-105	-101.25
364	33.75	-101.25	-22.5	-71.25	11.25	-90	-105	-97.5
365	22.5	-108.75	-22.5	-71.25	11.25	-90	-105	-97.5
366	37.5	-108.75	-22.5	-71.25	11.25	-90	-105	-101.25
367	26.25	-105	-22.5	-67.5	11.25	-93.75	-105	-101.25
368	3.75	-108.75	-22.5	-67.5	11.25	-93.75	-105	-101.25
369	18.75	-105	-33.75	-71.25	7.5	-97.5	-108.75	-101.25
370	45	-97.5	-37.5	-75	7.5	-97.5	-108.75	-101.25
371	22.5	-131.25	-45	-90	-7.5	-112.5	-127.5	-116.25
372	11.25	-146.25	-45	-93.75	-11.25	-120	-135	-120
373	-7.5	-153.75	-41.25	-90	-3.75	-112.5	-127.5	-112.5
374	-26.25	-165	-45	-93.75	-11.25	-112.5	-127.5	-112.5
375	26.25	-123.75	-30	-82.5	0	-101.25	-108.75	-101.25
376	52.5	-90	-11.25	-67.5	15	-82.5	-93.75	-90
377	18.75	-105	-18.75	-71.25	11.25	-86.25	-105	-101.25
378	3.75	-131.25	-37.5	-86.25	-3.75	-105	-120	-116.25
379	26.25	-116.25	-41.25	-82.5	-7.5	-108.75	-120	-112.5
380	71.25	-67.5	-22.5	-63.75	15	-90	-101.25	-93.75
381	52.5	-75	-22.5	-63.75	15	-90	-101.25	-90
382	11.25	-108.75	-30	-71.25	7.5	-93.75	-108.75	-97.5
383	18.75	-116.25	-37.5	-78.75	3.75	-97.5	-112.5	-101.25
384	48.75	-112.5	-45	-86.25	-3.75	-105	-120	-108.75
385	45	-120	-45	-93.75	-11.25	-108.75	-123.75	-112.5
386	30	-131.25	-48.75	-97.5	-11.25	-108.75	-123.75	-116.25
387	37.5	-120	-41.25	-90	-3.75	-101.25	-116.25	-108.75
388	33.75	-105	-30	-82.5	3.75	-93.75	-108.75	-101.25
389	22.5	-108.75	-26.25	-78.75	3.75	-93.75	-105	-101.25
390	26.25	-108.75	-26.25	-75	3.75	-97.5	-108.75	-101.25
391	41.25	-82.5	-18.75	-60	18.75	-86.25	-101.25	-90
392	67.5	-56.25	-15	-56.25	22.5	-82.5	-97.5	-86.25
393	37.5	-82.5	-22.5	-67.5	11.25	-90	-105	-97.5
394	37.5	-90	-22.5	-67.5	15	-90	-101.25	-93.75
395	63.75	-71.25	-18.75	-60	18.75	-86.25	-97.5	-90
396	37.5	-71.25	-3.75	-52.5	26.25	-78.75	-93.75	-82.5
397	7.5	-78.75	3.75	-45	33.75	-67.5	-82.5	-75
398	7.5	-78.75	7.5	-52.5	30	-71.25	-82.5	-82.5
399	26.25	-67.5	7.5	-52.5	30	-71.25	-86.25	-82.5
400	37.5	-56.25	15	-45	33.75	-63.75	-78.75	-78.75
401	18.75	-63.75	18.75	-41.25	37.5	-63.75	-82.5	-78.75
402	26.25	-48.75	30	-30	45	-63.75	-82.5	-78.75
403	82.5	-7.5	41.25	-15	60	-52.5	-67.5	-63.75
404	101.25	-11.25	30	-15	56.25	-56.25	-71.25	-67.5
405	63.75	-48.75	15	-22.5	48.75	-60	-71.25	-71.25
406	60	-56.25	18.75	-22.5	52.5	-52.5	-67.5	-71.25
407	63.75	-52.5	26.25	-22.5	52.5	-52.5	-75	-71.25
408	56.25	-52.5	30	-22.5	52.5	-56.25	-78.75	-71.25
409	30	-82.5	15	-37.5	37.5	-71.25	-90	-86.25
410	15	-101.25	7.5	-45	33.75	-78.75	-97.5	-93.75
411	60	-41.25	33.75	-22.5	60	-48.75	-71.25	-67.5
412	90	11.25	45	-7.5	71.25	-37.5	-56.25	-48.75
413	52.5	0	41.25	-3.75	71.25	-37.5	-48.75	-41.25
414	63.75	11.25	30	0	78.75	-22.5	-37.5	-30
415	105	33.75	15	0	82.5	-18.75	-30	-26.25
416	116.25	18.75	-15	-18.75	67.5	-30	-45	-41.25
417	108.75	-7.5	-37.5	-37.5	48.75	-45	-60	-52.5
418	78.75	-22.5	-33.75	-41.25	52.5	-45	-60	-48.75
419	33.75	-48.75	-30	-33.75	56.25	-37.5	-52.5	-41.25
420	33.75	-67.5	-45	-52.5	37.5	-52.5	-63.75	-56.25
421	75	-56.25	-52.5	-60	33.75	-60	-67.5	-56.25
422	101.25	-52.5	-63.75	-75	22.5	-67.5	-75	-60
423	97.5	-52.5	-63.75	-82.5	15	-75	-82.5	-67.5
424	86.25	-48.75	-60	-82.5	18.75	-75	-78.75	-67.5
425	60	-71.25	-63.75	-86.25	11.25	-82.5	-86.25	-71.25
426	60	-71.25	-56.25	-78.75	18.75	-75	-82.5	-67.5
427	63.75	-48.75	-37.5	-60	30	-60	-67.5	-52.5
428	60	-60	-48.75	-67.5	18.75	-75	-78.75	-63.75
429	75	-71.25	-56.25	-75	11.25	-82.5	-90	-71.25
430	63.75	-97.5	-63.75	-86.25	3.75	-90	-97.5	-82.5
431	63.75	-97.5	-63.75	-86.25	0	-86.25	-93.75	-78.75
432	63.75	-75	-52.5	-78.75	11.25	-82.5	-90	-71.25
433	45	-71.25	-37.5	-71.25	18.75	-71.25	-82.5	-63.75
434	60	-75	-41.25	-78.75	11.25	-75	-86.25	-71.25
435	60	-101.25	-56.25	-97.5	-7.5	-93.75	-105	-90
436	48.75	-101.25	-48.75	-93.75	-3.75	-93.75	-101.25	-90
437	56.25	-75	-37.5	-86.25	3.75	-82.5	-93.75	-78.75
438	41.25	-82.5	-37.5	-86.25	0	-90	-101.25	-86.25
439	30	-90	-41.25	-86.25	-3.75	-93.75	-105	-90
440	37.5	-90	-48.75	-90	-7.5	-101.25	-112.5	-97.5
441	33.75	-105	-52.5	-97.5	-11.25	-105	-116.25	-101.25
442	11.25	-120	-48.75	-97.5	-11.25	-105	-116.25	-101.25
443	11.25	-135	-63.75	-108.75	-22.5	-116.25	-127.5	-108.75
444	7.5	-153.75	-78.75	-123.75	-37.5	-127.5	-138.75	-123.75
445	15	-153.75	-71.25	-123.75	-37.5	-123.75	-135	-120
446	41.25	-135	-60	-116.25	-30	-116.25	-123.75	-108.75
447	11.25	-142.5	-56.25	-116.25	-33.75	-120	-127.5	-108.75
448	-7.5	-146.25	-52.5	-112.5	-30	-116.25	-127.5	-116.25
449	0	-138.75	-52.5	-112.5	-30	-116.25	-127.5	-120
450	-15	-146.25	-56.25	-120	-37.5	-120	-131.25	-123.75
451	-7.5	-142.5	-63.75	-120	-37.5	-123.75	-135	-120
452	-18.75	-131.25	-48.75	-101.25	-22.5	-112.5	-123.75	-108.75
453	-56.25	-142.5	-45	-93.75	-15	-105	-116.25	-101.25
454	-7.5	-135	-60	-112.5	-26.25	-112.5	-120	-108.75
455	37.5	-116.25	-63.75	-116.25	-33.75	-120	-127.5	-116.25
456	22.5	-120	-60	-108.75	-30	-120	-131.25	-116.25
457	15	-127.5	-60	-108.75	-30	-120	-131.25	-116.25
458	3.75	-146.25	-60	-116.25	-33.75	-120	-127.5	-116.25
459	-30	-168.75	-60	-120	-33.75	-123.75	-135	-123.75
460	-26.25	-157.5	-52.5	-112.5	-30	-120	-131.25	-120
461	-11.25	-142.5	-48.75	-108.75	-26.25	-116.25	-127.5	-116.25
462	0	-131.25	-48.75	-105	-26.25	-108.75	-116.25	-108.75
463	3.75	-116.25	-48.75	-101.25	-22.5	-108.75	-116.25	-105
464	-11.25	-123.75	-52.5	-105	-26.25	-120	-131.25	-112.5
465	3.75	-123.75	-56.25	-112.5	-33.75	-123.75	-135	-116.25
466	11.25	-131.25	-60	-112.5	-37.5	-127.5	-135	-120
467	-3.75	-150	-48.75	-101.25	-33.75	-127.5	-142.5	-127.5
468	-22.5	-176.25	-22.5	-82.5	-30	-138.75	-157.5	-142.5
469	-22.5	-195	15	-45	-22.5	-150	-176.25	-165
470	-3.75	-213.75	63.75	-7.5	-18.75	-165	-202.5	-195
471	22.5	-225	116.25	33.75	-22.5	-187.5	-228.75	-232.5
472	15	-228.75	168.75	75	-15	-198.75	-247.5	-247.5
473	11.25	-221.25	206.25	123.75	7.5	-195	-247.5	-243.75
474	30	-195	240	180	45	-168.75	-228.75	-228.75
475	78.75	-120	281.25	266.25	120	-108.75	-172.5	-180
476	138.75	-41.25	318.75	352.5	195	-41.25	-108.75	-123.75
477	195	0	326.25	397.5	247.5	11.25	-60	-78.75
478	232.5	41.25	318.75	431.25	292.5	63.75	-7.5	-26.25
479	247.5	86.25	322.5	472.5	352.5	131.25	60	41.25
480	315	168.75	318.75	525	431.25	228.75	161.25	138.75
481	408.75	285	296.25	577.5	528.75	352.5	288.75	258.75
482	476.25	420	273.75	607.5	622.5	480	427.5	386.25
483	536.25	566.25	221.25	611.25	708.75	611.25	581.25	536.25
484	581.25	708.75	168.75	626.25	817.5	761.25	731.25	686.25
485	611.25	885	165	693.75	960	933.75	903.75	847.5
486	637.5	1106.25	116.25	701.25	1068.75	1106.25	1106.25	1050
487	667.5	1327.5	-18.75	615	1128.75	1260	1305	1263.75
488	720	1477.5	-157.5	513.75	1173.75	1395	1470	1440
489	768.75	1556.25	-292.5	352.5	1177.5	1492.5	1593.75	1563.75
490	742.5	1601.25	-408.75	187.5	1177.5	1575	1698.75	1661.25
491	637.5	1552.5	-431.25	153.75	1226.25	1650	1758.75	1695
492	536.25	1455	-405	165	1282.5	1702.5	1777.5	1668.75
493	476.25	1387.5	-420	108.75	1286.25	1710	1758.75	1623.75
494	382.5	1282.5	-472.5	-18.75	1211.25	1631.25	1668.75	1526.25
495	273.75	1121.25	-491.25	-138.75	1065	1443.75	1477.5	1350
496	202.5	971.25	-435	-202.5	900	1203.75	1230	1128.75
497	120	795	-397.5	-296.25	671.25	915	952.5	888.75
498	30	603.75	-427.5	-465	360	570	641.25	645
499	-78.75	427.5	-457.5	-637.5	71.25	258.75	367.5	427.5
500	-142.5	281.25	-468.75	-723.75	-105	52.5	168.75	251.25
501	-161.25	165	-427.5	-686.25	-142.5	-37.5	48.75	120
502	-195	67.5	-390	-626.25	-131.25	-63.75	-7.5	41.25
503	-180	7.5	-401.25	-585	-116.25	-71.25	-37.5	-3.75
504	-108.75	7.5	-405	-528.75	-86.25	-56.25	-33.75	-11.25
505	-86.25	0	-386.25	-476.25	-71.25	-48.75	-26.25	-7.5
506	-105	-45	-356.25	-442.5	-86.25	-67.5	-41.25	-22.5
507	-78.75	-60	-315	-397.5	-82.5	-78.75	-52.5	-30
508	-30	-30	-262.5	-322.5	-48.75	-60	-37.5	-18.75
509	-11.25	3.75	-225	-251.25	-3.75	-30	-11.25	0
510	0	22.5	-183.75	-187.5	41.25	3.75	18.75	18.75
511	26.25	30	-150	-131.25	75	22.5	26.25	26.25
512	41.25	30	-123.75	-82.5	105	33.75	26.25	30
513	48.75	18.75	-82.5	-48.75	123.75	45	37.5	30
514	52.5	11.25	-52.5	-30	127.5	45	30	22.5
515	30	-11.25	-41.25	-22.5	123.75	33.75	15	11.25
516	48.75	0	-22.5	-11.25	127.5	30	11.25	7.5
517	78.75	3.75	-15	-11.25	120	26.25	7.5	3.75
518	60	-33.75	-22.5	-22.5	101.25	7.5	-11.25	-18.75
519	33.75	-52.5	-22.5	-30	93.75	-3.75	-26.25	-30
520	30	-52.5	-22.5	-33.75	86.25	-18.75	-37.5	-41.25
521	45	-45	-15	-26.25	82.5	-22.5	-41.25	-41.25
522	56.25	-45	-15	-22.5	82.5	-22.5	-41.25	-45
523	33.75	-67.5	-22.5	-22.5	71.25	-37.5	-56.25	-52.5
524	15	-90	-33.75	-33.75	60	-52.5	-67.5	-63.75
525	33.75	-75	-26.25	-30	60	-48.75	-63.75	-60
526	37.5	-67.5	-22.5	-26.25	63.75	-48.75	-60	-60
527	45	-67.5	-18.75	-26.25	63.75	-48.75	-63.75	-56.25
528	97.5	-22.5	7.5	-3.75	86.25	-26.25	-37.5	-33.75
529	97.5	-22.5	11.25	0	90	-22.5	-37.5	-33.75
530	60	-67.5	-3.75	-15	71.25	-37.5	-52.5	-48.75
531	52.5	-75	-3.75	-18.75	67.5	-41.25	-56.25	-52.5
532	78.75	-37.5	11.25	0	86.25	-22.5	-41.25	-41.25
533	71.25	-37.5	11.25	0	82.5	-26.25	-41.25	-41.25
534	56.25	-45	11.25	3.75	86.25	-26.25	-41.25	-41.25
535	63.75	-30	15	15	93.75	-18.75	-33.75	-33.75
536	63.75	-41.25	0	3.75	82.5	-30	-45	-41.25
537	93.75	-26.25	0	3.75	78.75	-37.5	-56.25	-41.25
538	112.5	-7.5	7.5	7.5	82.5	-30	-45	-33.75
539	90	-30	-3.75	0	75	-33.75	-48.75	-41.25
540	97.5	-30	-7.5	-3.75	75	-30	-45	-41.25
541	105	-26.25	-3.75	0	78.75	-22.5	-41.25	-33.75
542	82.5	-52.5	-3.75	0	78.75	-22.5	-41.25	-37.5
543	82.5	-56.25	-3.75	0	78.75	-22.5	-45	-41.25
544	93.75	-30	11.25	11.25	93.75	-11.25	-33.75	-33.75
545	78.75	-11.25	26.25	26.25	105	0	-18.75	-18.75
546	63.75	-18.75	22.5	26.25	105	0	-18.75	-18.75
547	101.25	-18.75	0	18.75	97.5	-11.25	-30	-30
548	127.5	-7.5	-7.5	22.5	97.5	-11.25	-26.25	-26.25
549	120	-11.25	-3.75	22.5	101.25	-7.5	-26.25	-22.5
550	116.25	-15	0	18.75	97.5	-11.25	-26.25	-22.5
551	116.25	-22.5	-3.75	15	90	-18.75	-33.75	-30
552	116.25	-22.5	-3.75	15	90	-18.75	-33.75	-30
553	123.75	-11.25	0	22.5	93.75	-7.5	-26.25	-22.5
554	135	7.5	11.25	33.75	112.5	11.25	-7.5	-7.5
555	135	7.5	18.75	41.25	123.75	22.5	0	-3.75
556	131.25	3.75	11.25	37.5	120	18.75	-3.75	-7.5
557	116.25	-18.75	7.5	30	108.75	7.5	-11.25	-18.75
558	105	-30	3.75	30	108.75	3.75	-15	-22.5
559	142.5	18.75	15	52.5	127.5	22.5	3.75	0
560	165	45	18.75	63.75	138.75	30	15	7.5
561	168.75	26.25	0	45	123.75	18.75	0	-3.75
562	165	-7.5	-26.25	22.5	105	0	-18.75	-18.75
563	131.25	-45	-30	18.75	101.25	-3.75	-18.75	-18.75
564	127.5	-33.75	-15	30	108.75	7.5	-7.5	-11.25
565	108.75	-45	-15	30	108.75	7.5	-11.25	-15
566	101.25	-45	-11.25	30	112.5	15	-3.75	-15
567	153.75	15	15	60	138.75	41.25	26.25	15
568	195	48.75	26.25	75	153.75	56.25	37.5	30
569	165	22.5	15	67.5	150	45	18.75	15
570	142.5	15	15	71.25	146.25	41.25	18.75	15
571	180	48.75	22.5	86.25	157.5	52.5	30	26.25
572	172.5	37.5	18.75	82.5	153.75	48.75	30	30
573	146.25	15	11.25	75	150	45	22.5	26.25
574	123.75	0	3.75	71.25	146.25	41.25	18.75	15
575	146.25	15	7.5	75	150	52.5	33.75	22.5
576	172.5	33.75	7.5	78.75	153.75	52.5	30	30
577	180	30	0	78.75	153.75	48.75	30	30
578	187.5	37.5	3.75	82.5	157.5	56.25	37.5	33.75
579	161.25	30	11.25	82.5	161.25	60	37.5	33.75
580	157.5	41.25	18.75	90	172.5	67.5	48.75	41.25
581	172.5	60	26.25	105	180	78.75	60	52.5
582	165	48.75	18.75	101.25	176.25	78.75	56.25	48.75
583	176.25	52.5	15	105	180	78.75	60	48.75
584	195	63.75	15	105	180	75	56.25	52.5
585	172.5	33.75	0	93.75	172.5	63.75	45	45
586	165	26.25	-3.75	93.75	172.5	63.75	45	45
587	217.5	75	7.5	105	183.75	78.75	63.75	60
588	228.75	82.5	7.5	108.75	187.5	86.25	75	67.5
589	217.5	67.5	0	101.25	183.75	86.25	71.25	63.75
590	228.75	71.25	7.5	101.25	187.5	93.75	75	63.75
591	206.25	52.5	0	93.75	176.25	82.5	67.5	56.25
592	172.5	30	-3.75	90	172.5	78.75	63.75	48.75
593	183.75	48.75	7.5	105	183.75	90	75	63.75
594	210	78.75	22.5	120	195	101.25	86.25	75
595	228.75	97.5	18.75	123.75	202.5	105	90	78.75
596	270	123.75	15	127.5	206.25	108.75	97.5	86.25
597	251.25	101.25	7.5	120	195	105	90	78.75
598	232.5	82.5	7.5	112.5	187.5	101.25	86.25	78.75
599	247.5	86.25	3.75	108.75	183.75	101.25	86.25	78.75
600	228.75	60	-11.25	97.5	176.25	90	78.75	71.25
601	206.25	56.25	-7.5	97.5	180	90	82.5	75
602	191.25	90	22.5	123.75	202.5	116.25	105	97.5
603	202.5	93.75	22.5	120	198.75	116.25	105	97.5
604	240	75	-3.75	97.5	172.5	90	82.5	75
605	277.5	90	-3.75	97.5	176.25	93.75	86.25	75
606	296.25	123.75	7.5	112.5	187.5	105	97.5	90
607	288.75	131.25	7.5	116.25	191.25	105	105	97.5
608	273.75	120	0	112.5	187.5	97.5	97.5	90
609	277.5	112.5	-3.75	108.75	183.75	97.5	97.5	93.75
610	255	93.75	-11.25	97.5	172.5	90	90	90
611	240	82.5	-7.5	93.75	165	86.25	86.25	86.25
612	232.5	82.5	-7.5	90	161.25	82.5	86.25	82.5
613	232.5	93.75	-3.75	93.75	168.75	90	93.75	86.25
614	262.5	108.75	3.75	90	161.25	86.25	86.25	82.5
615	277.5	108.75	3.75	86.25	153.75	75	78.75	75
616	270	116.25	7.5	90	161.25	78.75	86.25	82.5
617	258.75	116.25	11.25	90	157.5	82.5	90	86.25
618	247.5	105	7.5	90	153.75	78.75	82.5	78.75
619	251.25	116.25	15	97.5	161.25	78.75	82.5	86.25
620	236.25	97.5	3.75	90	146.25	67.5	75	78.75
621	225	75	-7.5	78.75	135	56.25	67.5	71.25
622	258.75	116.25	11.25	93.75	150	75	82.5	86.25
623	258.75	127.5	22.5	97.5	157.5	78.75	82.5	90
624	228.75	90	11.25	78.75	138.75	60	67.5	75
625	240	86.25	7.5	71.25	131.25	52.5	63.75	67.5
626	255	97.5	15	75	135	56.25	63.75	67.5
627	240	90	18.75	75	135	56.25	63.75	63.75
628	213.75	82.5	26.25	78.75	135	56.25	71.25	67.5
629	195	75	26.25	75	127.5	48.75	60	56.25
630	195	71.25	33.75	75	123.75	33.75	37.5	48.75
631	198.75	75	33.75	75	120	26.25	30	45
632	191.25	67.5	30	71.25	112.5	18.75	26.25	37.5
633	191.25	60	33.75	67.5	108.75	15	22.5	33.75
634	198.75	63.75	37.5	67.5	108.75	15	18.75	30
635	183.75	56.25	41.25	67.5	108.75	11.25	15	26.25
636	142.5	30	45	67.5	105	7.5	11.25	18.75
637	123.75	22.5	48.75	67.5	108.75	11.25	15	22.5
638	131.25	15	48.75	60	105	11.25	11.25	11.25
639	168.75	11.25	37.5	48.75	93.75	0	-3.75	-7.5
640	165	11.25	48.75	56.25	97.5	3.75	-3.75	-7.5
641	123.75	3.75	60	60	97.5	0	-3.75	-7.5
642	108.75	3.75	56.25	60	97.5	-3.75	-7.5	-11.25
643	101.25	-3.75	56.25	63.75	97.5	-7.5	-7.5	-11.25
644	112.5	0	56.25	60	97.5	-11.25	-15	-15
645	135	7.5	60	60	97.5	-7.5	-15	-15
646	123.75	-7.5	52.5	45	86.25	-15	-22.5	-22.5
647	116.25	-7.5	52.5	45	82.5	-22.5	-26.25	-22.5
648	101.25	-15	56.25	41.25	82.5	-22.5	-30	-30
649	56.25	-60	52.5	30	71.25	-33.75	-41.25	-45
650	67.5	-56.25	52.5	22.5	67.5	-37.5	-45	-48.75
651	71.25	-41.25	63.75	30	75	-30	-37.5	-45
652	56.25	-45	60	26.25	71.25	-33.75	-41.25	-52.5
653	37.5	-67.5	52.5	18.75	60	-45	-52.5	-60
654	3.75	-101.25	41.25	11.25	48.75	-56.25	-67.5	-75
655	33.75	-67.5	45	18.75	60	-48.75	-60	-67.5
656	105	0	67.5	37.5	75	-37.5	-41.25	-48.75
657	97.5	-3.75	67.5	33.75	71.25	-37.5	-41.25	-52.5
658	67.5	-33.75	56.25	18.75	56.25	-45	-52.5	-63.75
659	56.25	-48.75	56.25	15	56.25	-52.5	-67.5	-71.25
660	45	-60	52.5	7.5	48.75	-60	-71.25	-75
661	37.5	-60	52.5	3.75	48.75	-56.25	-67.5	-75
662	41.25	-67.5	52.5	0	45	-56.25	-67.5	-75
663	37.5	-86.25	45	-15	33.75	-67.5	-75	-86.25
664	11.25	-105	41.25	-18.75	30	-75	-82.5	-93.75
665	15	-93.75	41.25	-18.75	30	-71.25	-82.5	-93.75
666	41.25	-63.75	60	-3.75	41.25	-63.75	-75	-86.25
667	45	-56.25	56.25	0	45	-63.75	-75	-86.25
668	41.25	-67.5	37.5	-7.5	37.5	-71.25	-78.75	-90
669	18.75	-90	33.75	-18.75	30	-78.75	-86.25	-93.75
670	-7.5	-112.5	26.25	-30	22.5	-82.5	-90	-101.25
671	7.5	-108.75	22.5	-33.75	18.75	-82.5	-90	-101.25
672	45	-82.5	33.75	-26.25	26.25	-78.75	-86.25	-97.5
673	37.5	-82.5	37.5	-30	26.25	-78.75	-90	-97.5
674	18.75	-97.5	37.5	-33.75	18.75	-86.25	-90	-105
675	26.25	-97.5	37.5	-33.75	22.5	-82.5	-93.75	-105
676	-7.5	-101.25	41.25	-26.25	30	-75	-86.25	-101.25
677	-63.75	-112.5	52.5	-15	37.5	-71.25	-78.75	-90
678	-30	-112.5	41.25	-26.25	26.25	-82.5	-90	-105
679	11.25	-112.5	18.75	-41.25	7.5	-101.25	-108.75	-120
680	-22.5	-127.5	18.75	-41.25	11.25	-97.5	-108.75	-116.25
681	-7.5	-105	26.25	-33.75	22.5	-90	-101.25	-105
682	30	-82.5	30	-26.25	26.25	-86.25	-97.5	-101.25
683	11.25	-105	30	-33.75	22.5	-86.25	-93.75	-101.25
684	-18.75	-138.75	15	-48.75	7.5	-97.5	-101.25	-112.5
685	22.5	-108.75	22.5	-41.25	18.75	-86.25	-93.75	-108.75
686	71.25	-60	41.25	-22.5	37.5	-67.5	-78.75	-97.5
687	22.5	-78.75	48.75	-18.75	37.5	-63.75	-75	-93.75
688	-30	-101.25	48.75	-18.75	41.25	-63.75	-75	-93.75
689	-18.75	-101.25	45	-22.5	37.5	-67.5	-78.75	-97.5
690	-3.75	-97.5	37.5	-26.25	30	-75	-82.5	-101.25
691	0	-82.5	41.25	-15	41.25	-71.25	-82.5	-97.5
692	0	-82.5	41.25	-11.25	41.25	-71.25	-82.5	-93.75
693	3.75	-93.75	33.75	-22.5	33.75	-71.25	-86.25	-97.5
694	7.5	-105	30	-26.25	30	-75	-90	-101.25
695	-11.25	-127.5	15	-37.5	18.75	-86.25	-93.75	-105
696	-30	-138.75	7.5	-41.25	15	-90	-97.5	-108.75
697	-22.5	-135	11.25	-45	18.75	-82.5	-97.5	-112.5
698	-11.25	-127.5	15	-41.25	22.5	-75	-90	-108.75
699	15	-93.75	30	-26.25	33.75	-71.25	-82.5	-101.25
700	3.75	-97.5	37.5	-22.5	37.5	-63.75	-78.75	-97.5
701	-22.5	-123.75	22.5	-30	30	-75	-86.25	-105
702	-15	-108.75	26.25	-22.5	33.75	-67.5	-78.75	-97.5
703	0	-90	30	-15	41.25	-63.75	-75	-93.75
704	26.25	-75	30	-11.25	45	-63.75	-75	-86.25
705	30	-78.75	26.25	-15	41.25	-63.75	-75	-86.25
706	3.75	-97.5	22.5	-15	41.25	-60	-75	-90
707	15	-97.5	22.5	-18.75	37.5	-67.5	-78.75	-93.75
708	18.75	-97.5	15	-26.25	30	-71.25	-78.75	-93.75
709	-18.75	-127.5	11.25	-33.75	26.25	-78.75	-90	-101.25
710	-45	-135	15	-30	30	-78.75	-93.75	-101.25
711	-33.75	-108.75	30	-15	45	-60	-75	-86.25
712	-7.5	-90	33.75	-15	45	-56.25	-67.5	-90
713	0	-93.75	33.75	-18.75	41.25	-60	-71.25	-93.75
714	-7.5	-97.5	33.75	-11.25	45	-56.25	-71.25	-90
715	-7.5	-93.75	30	-11.25	45	-56.25	-71.25	-86.25
716	-7.5	-97.5	22.5	-18.75	41.25	-63.75	-75	-90
717	-7.5	-101.25	18.75	-22.5	33.75	-67.5	-78.75	-90
718	-15	-105	18.75	-22.5	37.5	-63.75	-75	-86.25
719	-11.25	-108.75	15	-26.25	33.75	-63.75	-78.75	-86.25
720	0	-108.75	11.25	-33.75	30	-71.25	-82.5	-93.75
721	-18.75	-131.25	0	-45	18.75	-78.75	-93.75	-101.25
722	-45	-142.5	7.5	-45	22.5	-75	-90	-101.25
723	-67.5	-127.5	30	-22.5	45	-52.5	-67.5	-78.75
724	-67.5	-131.25	22.5	-22.5	41.25	-56.25	-71.25	-82.5
725	-18.75	-120	15	-33.75	30	-71.25	-82.5	-93.75
726	26.25	-90	11.25	-33.75	33.75	-71.25	-82.5	-93.75
727	15	-93.75	11.25	-30	33.75	-71.25	-82.5	-90
728	3.75	-101.25	11.25	-30	30	-78.75	-86.25	-90
729	11.25	-105	3.75	-37.5	26.25	-82.5	-90	-90
730	-3.75	-131.25	-11.25	-52.5	11.25	-93.75	-101.25	-101.25
731	-15	-127.5	-3.75	-45	18.75	-82.5	-90	-90
732	-48.75	-116.25	15	-33.75	37.5	-60	-71.25	-75
733	-78.75	-153.75	0	-48.75	22.5	-75	-82.5	-90
734	-18.75	-142.5	-3.75	-56.25	15	-82.5	-90	-97.5
735	45	-82.5	15	-41.25	30	-63.75	-71.25	-82.5
736	22.5	-90	11.25	-41.25	26.25	-67.5	-75	-82.5
737	-3.75	-105	7.5	-48.75	22.5	-75	-82.5	-90
738	-7.5	-93.75	11.25	-45	26.25	-75	-82.5	-86.25
739	-11.25	-86.25	15	-37.5	33.75	-71.25	-78.75	-82.5
740	-11.25	-97.5	7.5	-37.5	30	-71.25	-78.75	-82.5
741	-15	-120	0	-48.75	22.5	-82.5	-90	-90
742	0	-116.25	0	-48.75	22.5	-78.75	-82.5	-82.5
743	0	-101.25	3.75	-48.75	22.5	-75	-78.75	-82.5
744	-11.25	-105	3.75	-48.75	22.5	-78.75	-82.5	-86.25
745	-11.25	-120	-7.5	-60	11.25	-86.25	-93.75	-93.75
746	-11.25	-131.25	-18.75	-71.25	3.75	-90	-97.5	-101.25
747	-30	-138.75	-15	-71.25	0	-90	-93.75	-105
748	-37.5	-131.25	-3.75	-67.5	3.75	-90	-93.75	-101.25
749	-15	-123.75	-3.75	-67.5	7.5	-90	-93.75	-101.25
750	11.25	-112.5	-7.5	-67.5	7.5	-86.25	-93.75	-101.25
751	11.25	-108.75	-7.5	-60	11.25	-86.25	-90	-93.75
752	-18.75	-116.25	-3.75	-60	11.25	-86.25	-86.25	-90
753	-37.5	-131.25	-11.25	-67.5	3.75	-90	-90	-90
754	-33.75	-153.75	-30	-86.25	-11.25	-105	-105	-105
755	-30	-153.75	-26.25	-82.5	-7.5	-101.25	-105	-108.75
756	-37.5	-157.5	-22.5	-82.5	-7.5	-105	-108.75	-108.75
757	-45	-168.75	-30	-90	-15	-108.75	-112.5	-116.25
758	-30	-150	-18.75	-86.25	-11.25	-101.25	-105	-108.75
759	0	-112.5	-3.75	-71.25	3.75	-90	-93.75	-97.5
760	7.5	-105	-3.75	-71.25	7.5	-90	-93.75	-97.5
761	-26.25	-135	-18.75	-82.5	-7.5	-101.25	-105	-108.75
762	-52.5	-131.25	-11.25	-71.25	0	-97.5	-97.5	-101.25
763	-33.75	-97.5	0	-60	11.25	-90	-90	-90
764	-3.75	-105	-15	-75	-3.75	-101.25	-101.25	-101.25
765	-7.5	-127.5	-30	-90	-15	-112.5	-112.5	-108.75
766	-26.25	-127.5	-18.75	-78.75	-7.5	-101.25	-101.25	-101.25
767	-7.5	-116.25	-18.75	-78.75	-7.5	-101.25	-101.25	-97.5
768	7.5	-112.5	-22.5	-82.5	-7.5	-101.25	-97.5	-97.5
769	-7.5	-135	-30	-93.75	-15	-108.75	-101.25	-105
770	-37.5	-168.75	-33.75	-101.25	-22.5	-116.25	-116.25	-116.25
771	-30	-153.75	-26.25	-97.5	-18.75	-108.75	-108.75	-108.75
772	-3.75	-120	-18.75	-90	-11.25	-101.25	-101.25	-101.25
773	-18.75	-131.25	-18.75	-90	-11.25	-108.75	-108.75	-105
774	-41.25	-142.5	-18.75	-86.25	-11.25	-105	-108.75	-105
775	-26.25	-131.25	-22.5	-82.5	-11.25	-108.75	-105	-105
776	-18.75	-135	-30	-90	-18.75	-112.5	-112.5	-108.75
777	-33.75	-142.5	-30	-97.5	-22.5	-116.25	-116.25	-112.5
778	-37.5	-142.5	-30	-97.5	-22.5	-120	-120	-112.5
779	-33.75	-146.25	-37.5	-97.5	-26.25	-120	-120	-112.5
780	-45	-150	-30	-93.75	-22.5	-116.25	-120	-112.5
781	-63.75	-157.5	-30	-97.5	-26.25	-116.25	-120	-112.5
782	-60	-168.75	-33.75	-105	-30	-120	-123.75	-120
783	-75	-187.5	-37.5	-108.75	-37.5	-123.75	-127.5	-123.75
784	-116.25	-225	-52.5	-120	-45	-135	-135	-131.25
785	-105	-221.25	-56.25	-123.75	-48.75	-142.5	-142.5	-135
786	-7.5	-116.25	-18.75	-86.25	-15	-105	-105	-97.5
787	45	-52.5	0	-60	15	-78.75	-78.75	-71.25
788	0	-105	-22.5	-82.5	-7.5	-101.25	-101.25	-93.75
789	-22.5	-142.5	-41.25	-105	-30	-123.75	-120	-112.5
790	-26.25	-153.75	-48.75	-112.5	-37.5	-131.25	-127.5	-116.25
791	-41.25	-150	-37.5	-105	-26.25	-120	-120	-108.75
792	-52.5	-142.5	-26.25	-93.75	-18.75	-112.5	-112.5	-101.25
793	-56.25	-153.75	-26.25	-97.5	-22.5	-120	-120	-108.75
794	-41.25	-168.75	-41.25	-112.5	-33.75	-127.5	-123.75	-120
795	-18.75	-165	-45	-120	-37.5	-127.5	-123.75	-120
796	-11.25	-142.5	-33.75	-108.75	-30	-116.25	-116.25	-112.5
797	-37.5	-146.25	-26.25	-101.25	-22.5	-112.5	-116.25	-116.25
798	-60	-157.5	-33.75	-105	-22.5	-112.5	-112.5	-120
799	-41.25	-138.75	-37.5	-101.25	-22.5	-116.25	-116.25	-116.25
800	-30	-135	-37.5	-101.25	-22.5	-120	-120	-116.25
801	-37.5	-146.25	-37.5	-101.25	-26.25	-123.75	-123.75	-116.25
802	-41.25	-153.75	-41.25	-108.75	-30	-123.75	-123.75	-116.25
803	-30	-153.75	-45	-108.75	-33.75	-123.75	-123.75	-120
804	-26.25	-150	-45	-112.5	-33.75	-123.75	-123.75	-120
805	-60	-157.5	-37.5	-108.75	-26.25	-116.25	-120	-116.25
806	-78.75	-157.5	-30	-105	-22.5	-112.5	-112.5	-108.75
807	-45	-157.5	-37.5	-112.5	-30	-123.75	-123.75	-116.25
808	-37.5	-165	-45	-120	-37.5	-131.25	-131.25	-127.5
809	-37.5	-157.5	-41.25	-112.5	-30	-123.75	-123.75	-120
810	-45	-157.5	-41.25	-108.75	-30	-127.5	-123.75	-120
811	-56.25	-161.25	-37.5	-105	-30	-127.5	-123.75	-120
812	-33.75	-138.75	-33.75	-97.5	-22.5	-120	-120	-108.75
813	-30	-131.25	-33.75	-97.5	-18.75	-116.25	-112.5	-105
814	-52.5	-150	-37.5	-105	-26.25	-123.75	-120	-112.5
815	-60	-165	-45	-112.5	-33.75	-127.5	-127.5	-120
816	-56.25	-157.5	-45	-108.75	-30	-123.75	-123.75	-116.25
817	-48.75	-142.5	-33.75	-101.25	-22.5	-116.25	-116.25	-112.5
818	-30	-138.75	-33.75	-105	-26.25	-116.25	-116.25	-116.25
819	-30	-138.75	-30	-105	-26.25	-120	-120	-116.25
820	-33.75	-135	-26.25	-101.25	-18.75	-116.25	-116.25	-108.75
821	-33.75	-135	-30	-101.25	-18.75	-112.5	-112.5	-108.75
822	-26.25	-127.5	-30	-97.5	-18.75	-116.25	-112.5	-108.75
823	-41.25	-135	-33.75	-97.5	-22.5	-123.75	-120	-112.5
824	-67.5	-161.25	-45	-105	-33.75	-131.25	-127.5	-123.75
825	-48.75	-157.5	-48.75	-108.75	-33.75	-135	-131.25	-123.75
826	-22.5	-138.75	-41.25	-101.25	-26.25	-123.75	-123.75	-112.5
827	-33.75	-135	-37.5	-101.25	-26.25	-120	-120	-112.5
828	-37.5	-135	-37.5	-101.25	-22.5	-116.25	-120	-108.75
829	-22.5	-131.25	-37.5	-101.25	-22.5	-116.25	-116.25	-108.75
830	-26.25	-123.75	-26.25	-97.5	-18.75	-112.5	-108.75	-105
831	-22.5	-112.5	-26.25	-93.75	-15	-108.75	-105	-105
832	-11.25	-101.25	-18.75	-82.5	-7.5	-101.25	-97.5	-97.5
833	-7.5	-101.25	-15	-82.5	-7.5	-105	-105	-101.25
834	-45	-127.5	-18.75	-86.25	-11.25	-112.5	-112.5	-108.75
835	-60	-112.5	-7.5	-71.25	0	-101.25	-97.5	-93.75
836	-22.5	-67.5	3.75	-60	11.25	-93.75	-90	-82.5
837	-48.75	-93.75	0	-67.5	3.75	-97.5	-93.75	-90
838	-82.5	-105	11.25	-60	11.25	-90	-86.25	-82.5
839	-15	-60	22.5	-48.75	18.75	-86.25	-82.5	-75
840	7.5	-71.25	11.25	-60	7.5	-93.75	-93.75	-90
841	-18.75	-101.25	3.75	-63.75	3.75	-97.5	-97.5	-93.75
842	-26.25	-116.25	3.75	-67.5	0	-101.25	-101.25	-101.25
843	-18.75	-112.5	11.25	-63.75	7.5	-97.5	-97.5	-97.5
844	-18.75	-93.75	22.5	-52.5	15	-90	-93.75	-93.75
845	-11.25	-75	33.75	-45	18.75	-82.5	-86.25	-90
846	-22.5	-67.5	33.75	-41.25	26.25	-78.75	-78.75	-78.75
847	-60	-60	52.5	-18.75	48.75	-60	-60	-56.25
848	-56.25	-60	48.75	-18.75	45	-60	-60	-52.5
849	-26.25	-75	15	-48.75	18.75	-86.25	-82.5	-78.75
850	-26.25	-78.75	7.5	-56.25	15	-86.25	-86.25	-78.75
851	-18.75	-67.5	3.75	-52.5	18.75	-86.25	-86.25	-71.25
852	7.5	-52.5	-3.75	-52.5	22.5	-75	-78.75	-67.5
853	15	-60	-22.5	-63.75	18.75	-71.25	-71.25	-67.5
854	-3.75	-71.25	-33.75	-71.25	15	-67.5	-67.5	-63.75
855	-7.5	-63.75	-30	-67.5	18.75	-63.75	-63.75	-60
856	26.25	-52.5	-33.75	-67.5	18.75	-71.25	-71.25	-67.5
857	33.75	-60	-45	-75	11.25	-78.75	-78.75	-75
858	30	-56.25	-45	-75	7.5	-78.75	-78.75	-71.25
859	56.25	-41.25	-52.5	-78.75	3.75	-86.25	-78.75	-71.25
860	67.5	-60	-71.25	-97.5	-15	-101.25	-93.75	-82.5
861	37.5	-78.75	-75	-105	-18.75	-105	-97.5	-90
862	-37.5	-82.5	-52.5	-86.25	0	-82.5	-75	-67.5
863	-56.25	-78.75	-41.25	-82.5	7.5	-78.75	-71.25	-60
864	22.5	-82.5	-63.75	-108.75	-22.5	-108.75	-101.25	-86.25
865	37.5	-116.25	-82.5	-135	-48.75	-142.5	-135	-116.25
866	0	-131.25	-67.5	-123.75	-37.5	-123.75	-120	-108.75
867	15	-90	-41.25	-93.75	-3.75	-90	-86.25	-82.5
868	26.25	-71.25	-30	-82.5	3.75	-82.5	-78.75	-75
869	3.75	-101.25	-37.5	-93.75	-11.25	-93.75	-93.75	-90
870	-15	-108.75	-45	-105	-18.75	-105	-101.25	-97.5
871	-18.75	-97.5	-45	-101.25	-15	-105	-97.5	-97.5
872	7.5	-82.5	-45	-101.25	-18.75	-112.5	-105	-101.25
873	0	-97.5	-52.5	-112.5	-30	-123.75	-112.5	-108.75
874	-22.5	-120	-56.25	-116.25	-33.75	-123.75	-120	-112.5
875	-3.75	-108.75	-52.5	-116.25	-30	-120	-116.25	-108.75
876	3.75	-101.25	-41.25	-112.5	-30	-123.75	-116.25	-108.75
877	-7.5	-120	-52.5	-120	-41.25	-135	-127.5	-120
878	-26.25	-150	-63.75	-138.75	-52.5	-146.25	-138.75	-135
879	-60	-180	-67.5	-146.25	-60	-153.75	-150	-142.5
880	-71.25	-183.75	-63.75	-142.5	-63.75	-153.75	-150	-146.25
881	-71.25	-180	-63.75	-142.5	-60	-150	-146.25	-146.25
882	-30	-123.75	-48.75	-120	-41.25	-135	-127.5	-127.5
883	-11.25	-82.5	-30	-97.5	-18.75	-112.5	-108.75	-105
884	-41.25	-116.25	-45	-112.5	-33.75	-127.5	-123.75	-116.25
885	-30	-142.5	-56.25	-131.25	-52.5	-146.25	-142.5	-135
886	-3.75	-138.75	-63.75	-138.75	-56.25	-153.75	-146.25	-142.5
887	-11.25	-131.25	-56.25	-131.25	-48.75	-142.5	-131.25	-131.25
888	-33.75	-142.5	-60	-131.25	-48.75	-138.75	-127.5	-131.25
889	-30	-161.25	-71.25	-146.25	-67.5	-153.75	-146.25	-142.5
890	-18.75	-157.5	-71.25	-146.25	-67.5	-153.75	-146.25	-146.25
891	-33.75	-150	-60	-138.75	-56.25	-142.5	-138.75	-135
892	-63.75	-146.25	-48.75	-123.75	-41.25	-131.25	-127.5	-127.5
893	-60	-138.75	-45	-120	-41.25	-127.5	-123.75	-127.5
894	-30	-120	-45	-116.25	-37.5	-127.5	-123.75	-123.75
895	-26.25	-108.75	-45	-116.25	-37.5	-127.5	-123.75	-123.75
896	-48.75	-135	-56.25	-123.75	-48.75	-142.5	-131.25	-131.25
897	-60	-157.5	-67.5	-138.75	-60	-150	-142.5	-138.75
898	-56.25	-161.25	-63.75	-135	-56.25	-150	-142.5	-135
899	-63.75	-161.25	-60	-135	-56.25	-150	-142.5	-138.75
900	-33.75	-135	-52.5	-127.5	-52.5	-146.25	-138.75	-131.25
901	-26.25	-135	-48.75	-127.5	-52.5	-138.75	-131.25	-127.5
902	-75	-172.5	-52.5	-131.25	-52.5	-138.75	-135	-135
903	-71.25	-165	-41.25	-120	-45	-131.25	-131.25	-135
904	-33.75	-142.5	-18.75	-101.25	-33.75	-127.5	-131.25	-138.75
905	-37.5	-165	3.75	-75	-37.5	-146.25	-150	-161.25
906	-41.25	-187.5	48.75	-37.5	-30	-161.25	-176.25	-183.75
907	-22.5	-191.25	97.5	3.75	-30	-187.5	-206.25	-217.5
908	-3.75	-202.5	146.25	41.25	-30	-210	-232.5	-247.5
909	0	-217.5	180	63.75	-33.75	-228.75	-255	-266.25
910	0	-206.25	213.75	116.25	-7.5	-213.75	-243.75	-255
911	7.5	-176.25	247.5	183.75	48.75	-172.5	-217.5	-228.75
912	15	-150	277.5	255	105	-127.5	-180	-198.75
913	37.5	-116.25	300	311.25	161.25	-78.75	-131.25	-157.5
914	123.75	-22.5	322.5	371.25	232.5	0	-56.25	-90
915	191.25	71.25	341.25	431.25	307.5	82.5	26.25	-15
916	221.25	123.75	337.5	472.5	367.5	153.75	101.25	56.25
917	307.5	210	315	521.25	446.25	247.5	202.5	153.75
918	401.25	348.75	296.25	577.5	547.5	375	330	277.5
919	446.25	487.5	266.25	603.75	645	506.25	472.5	420
920	480	600	187.5	588.75	727.5	633.75	611.25	558.75
921	532.5	757.5	153.75	630	851.25	798.75	783.75	720
922	592.5	978.75	157.5	693.75	993.75	986.25	982.5	911.25
923	637.5	1218.75	75	667.5	1087.5	1158.75	1188.75	1128.75
924	652.5	1410	-63.75	581.25	1147.5	1316.25	1391.25	1331.25
925	675	1500	-195	465	1185	1436.25	1533.75	1473.75
926	712.5	1552.5	-337.5	285	1173.75	1515	1631.25	1575
927	675	1575	-412.5	172.5	1192.5	1601.25	1725	1650
928	577.5	1518.75	-397.5	187.5	1260	1668.75	1762.5	1650
929	502.5	1458.75	-371.25	191.25	1312.5	1710	1773.75	1620
930	431.25	1417.5	-397.5	116.25	1297.5	1698.75	1747.5	1578.75
931	330	1290	-450	-15	1188.75	1575	1616.25	1455
932	206.25	1065	-468.75	-142.5	1005	1335	1372.5	1230
933	90	855	-431.25	-232.5	798.75	1057.5	1087.5	978.75
934	30	701.25	-412.5	-356.25	536.25	746.25	798.75	746.25
935	-30	547.5	-438.75	-528.75	232.5	420	513.75	521.25
936	-135	367.5	-468.75	-686.25	-22.5	150	270	322.5
937	-232.5	168.75	-468.75	-742.5	-165	-26.25	82.5	142.5
938	-266.25	11.25	-453.75	-723.75	-206.25	-120	-45	-3.75
939	-228.75	-18.75	-435	-663.75	-183.75	-127.5	-78.75	-56.25
940	-187.5	11.25	-412.5	-585	-127.5	-90	-56.25	-48.75
941	-191.25	-7.5	-397.5	-513.75	-90	-63.75	-37.5	-41.25
942	-187.5	-37.5	-378.75	-465	-86.25	-67.5	-41.25	-41.25
943	-127.5	-18.75	-337.5	-416.25	-86.25	-78.75	-45	-41.25
944	-78.75	-3.75	-296.25	-360	-71.25	-75	-45	-41.25
945	-75	-15	-262.5	-307.5	-48.75	-63.75	-37.5	-37.5
946	-67.5	-7.5	-232.5	-251.25	-15	-48.75	-26.25	-26.25
947	-37.5	11.25	-198.75	-191.25	22.5	-22.5	-11.25	-15
948	-15	0	-168.75	-146.25	48.75	-7.5	-3.75	-15
949	-11.25	-15	-123.75	-105	75	7.5	3.75	-11.25
950	-11.25	-22.5	-97.5	-78.75	86.25	11.25	3.75	-15
951	11.25	-7.5	-67.5	-56.25	97.5	15	7.5	-15
952	-3.75	-11.25	-45	-37.5	105	15	0	-18.75
953	-33.75	-30	-37.5	-30	101.25	3.75	-7.5	-30
954	-26.25	-41.25	-37.5	-33.75	86.25	-15	-22.5	-45
955	-18.75	-56.25	-48.75	-41.25	75	-30	-41.25	-56.25
956	3.75	-52.5	-41.25	-37.5	71.25	-37.5	-48.75	-63.75
957	22.5	-41.25	-33.75	-33.75	71.25	-37.5	-45	-60
958	0	-60	-33.75	-37.5	63.75	-41.25	-52.5	-63.75
959	-15	-78.75	-37.5	-45	52.5	-52.5	-63.75	-75
960	-18.75	-90	-45	-52.5	41.25	-67.5	-75	-90
961	-22.5	-90	-41.25	-48.75	41.25	-67.5	-78.75	-93.75
962	-18.75	-90	-33.75	-48.75	45	-63.75	-75	-93.75
963	-3.75	-86.25	-33.75	-48.75	41.25	-67.5	-78.75	-97.5
964	11.25	-78.75	-30	-45	41.25	-67.5	-78.75	-97.5
965	0	-82.5	-26.25	-37.5	45	-63.75	-75	-90
966	-30	-86.25	-18.75	-26.25	56.25	-60	-71.25	-86.25
967	-37.5	-82.5	-15	-22.5	56.25	-63.75	-75	-82.5
968	-11.25	-86.25	-30	-33.75	41.25	-75	-78.75	-90
969	15	-82.5	-37.5	-45	30	-82.5	-86.25	-97.5
970	7.5	-78.75	-33.75	-37.5	37.5	-78.75	-86.25	-93.75
971	-3.75	-86.25	-33.75	-37.5	37.5	-75	-82.5	-97.5
972	-15	-108.75	-41.25	-45	30	-78.75	-90	-105
973	-26.25	-131.25	-48.75	-56.25	18.75	-93.75	-105	-120
974	0	-116.25	-41.25	-52.5	26.25	-90	-101.25	-116.25
975	15	-71.25	-18.75	-30	48.75	-63.75	-82.5	-93.75
976	-41.25	-78.75	-7.5	-15	67.5	-48.75	-63.75	-78.75
977	-41.25	-101.25	-18.75	-22.5	56.25	-56.25	-67.5	-86.25
978	15	-86.25	-30	-26.25	48.75	-67.5	-78.75	-93.75
979	26.25	-63.75	-30	-18.75	56.25	-63.75	-71.25	-86.25
980	33.75	-67.5	-37.5	-22.5	52.5	-63.75	-75	-86.25
981	48.75	-75	-41.25	-26.25	52.5	-63.75	-75	-90
982	45	-71.25	-37.5	-22.5	56.25	-63.75	-67.5	-86.25
983	22.5	-86.25	-41.25	-26.25	52.5	-63.75	-71.25	-90
984	22.5	-90	-45	-26.25	52.5	-63.75	-71.25	-90
985	22.5	-90	-45	-26.25	56.25	-60	-67.5	-86.25
986	-30	-135	-56.25	-33.75	48.75	-67.5	-78.75	-97.5
987	-45	-146.25	-56.25	-37.5	45	-71.25	-82.5	-101.25
988	15	-75	-26.25	-7.5	71.25	-41.25	-52.5	-75
989	75	-15	-11.25	11.25	90	-26.25	-41.25	-60
990	56.25	-26.25	-15	11.25	90	-30	-41.25	-63.75
991	33.75	-41.25	-26.25	11.25	86.25	-37.5	-52.5	-71.25
992	37.5	-56.25	-37.5	0	75	-45	-60	-75
993	41.25	-63.75	-41.25	-3.75	75	-45	-60	-75
994	48.75	-56.25	-37.5	0	78.75	-37.5	-48.75	-67.5
995	63.75	-45	-37.5	3.75	86.25	-26.25	-37.5	-60
996	60	-52.5	-41.25	3.75	86.25	-26.25	-41.25	-60
997	56.25	-56.25	-41.25	3.75	86.25	-30	-45	-63.75
998	60	-52.5	-33.75	7.5	90	-22.5	-37.5	-60
999	52.5	-52.5	-37.5	3.75	90	-26.25	-41.25	-63.75
1000	26.25	-63.75	-33.75	11.25	93.75	-22.5	-37.5	-63.75
1001	30	-56.25	-26.25	18.75	101.25	-11.25	-22.5	-52.5
1002	67.5	-15	-11.25	41.25	120	3.75	-15	-33.75
1003	67.5	-15	-15	41.25	116.25	-3.75	-22.5	-41.25
1004	30	-52.5	-33.75	26.25	105	-18.75	-33.75	-56.25
1005	48.75	-45	-33.75	30	108.75	-7.5	-26.25	-48.75
1006	90	-22.5	-30	33.75	112.5	-7.5	-26.25	-45
1007	63.75	-37.5	-26.25	33.75	112.5	-7.5	-26.25	-41.25
1008	33.75	-56.25	-33.75	33.75	112.5	-7.5	-22.5	-41.25
1009	71.25	-33.75	-30	37.5	120	3.75	-15	-33.75
1010	82.5	-30	-26.25	37.5	120	7.5	-15	-33.75
1011	67.5	-41.25	-33.75	33.75	116.25	0	-22.5	-45
1012	93.75	-15	-30	41.25	123.75	7.5	-15	-37.5
1013	97.5	-11.25	-26.25	48.75	135	15	-3.75	-26.25
1014	90	-7.5	-26.25	52.5	138.75	18.75	0	-22.5
1015	112.5	22.5	-26.25	63.75	146.25	26.25	7.5	-15
1016	101.25	22.5	-26.25	63.75	146.25	30	11.25	-7.5
1017	97.5	15	-30	60	146.25	30	15	-7.5
1018	127.5	11.25	-41.25	52.5	138.75	26.25	11.25	-11.25
1019	123.75	0	-45	48.75	135	18.75	3.75	-15
1020	105	-3.75	-41.25	56.25	138.75	26.25	7.5	-15
1021	105	-3.75	-37.5	56.25	142.5	26.25	7.5	-15
1022	108.75	-11.25	-41.25	52.5	138.75	22.5	0	-22.5
1023	108.75	-7.5	-41.25	56.25	142.5	26.25	7.5	-15
1024	120	11.25	-30	67.5	153.75	41.25	18.75	-3.75
1025	127.5	18.75	-30	71.25	150	37.5	18.75	-3.75
1026	131.25	22.5	-30	75	153.75	33.75	18.75	0
1027	116.25	11.25	-37.5	71.25	150	30	15	0
1028	105	0	-41.25	71.25	150	30	15	3.75
1029	120	11.25	-37.5	71.25	153.75	41.25	30	11.25
1030	116.25	3.75	-41.25	71.25	153.75	45	33.75	11.25
1031	123.75	7.5	-45	71.25	157.5	48.75	33.75	15
1032	138.75	18.75	-45	67.5	150	45	30	11.25
1033	142.5	18.75	-48.75	63.75	150	45	30	11.25
1034	135	11.25	-48.75	63.75	150	48.75	33.75	15
1035	138.75	15	-41.25	71.25	157.5	52.5	41.25	22.5
1036	138.75	22.5	-41.25	67.5	153.75	56.25	45	22.5
1037	127.5	11.25	-48.75	67.5	150	48.75	41.25	18.75
1038	138.75	22.5	-48.75	71.25	150	48.75	37.5	22.5
1039	176.25	60	-41.25	82.5	161.25	56.25	45	33.75
1040	183.75	63.75	-41.25	82.5	161.25	60	48.75	37.5
1041	138.75	18.75	-60	60	142.5	41.25	37.5	26.25
1042	97.5	-15	-71.25	48.75	131.25	30	30	18.75
1043	101.25	-11.25	-71.25	48.75	127.5	30	30	18.75
1044	142.5	15	-63.75	56.25	135	41.25	37.5	26.25
1045	187.5	45	-52.5	60	142.5	48.75	45	33.75
1046	180	37.5	-56.25	52.5	138.75	41.25	41.25	30
1047	168.75	37.5	-48.75	56.25	138.75	45	41.25	33.75
1048	183.75	67.5	-37.5	71.25	146.25	56.25	52.5	45
1049	195	71.25	-37.5	71.25	146.25	52.5	48.75	41.25
1050	180	56.25	-45	63.75	135	41.25	41.25	37.5
1051	172.5	52.5	-45	63.75	131.25	37.5	41.25	37.5
1052	153.75	30	-56.25	52.5	123.75	30	30	30
1053	146.25	15	-60	45	116.25	26.25	26.25	26.25
1054	150	11.25	-63.75	45	112.5	26.25	26.25	26.25
1055	138.75	15	-56.25	45	108.75	22.5	26.25	22.5
1056	123.75	11.25	-52.5	37.5	97.5	7.5	11.25	11.25
1057	127.5	7.5	-52.5	30	93.75	3.75	7.5	11.25
1058	131.25	3.75	-56.25	26.25	93.75	11.25	15	11.25
1059	127.5	3.75	-52.5	33.75	97.5	15	18.75	15
1060	120	3.75	-52.5	30	93.75	7.5	11.25	11.25
1061	116.25	3.75	-45	30	90	0	3.75	7.5
1062	146.25	37.5	-37.5	41.25	97.5	7.5	11.25	15
1063	142.5	56.25	-22.5	60	112.5	22.5	26.25	33.75
1064	82.5	41.25	-11.25	67.5	120	26.25	30	41.25
1065	63.75	0	-30	48.75	101.25	7.5	15	22.5
1066	93.75	-22.5	-52.5	18.75	71.25	-18.75	-15	-7.5
1067	93.75	-18.75	-41.25	22.5	71.25	-26.25	-22.5	-15
1068	71.25	-33.75	-37.5	18.75	67.5	-30	-30	-22.5
1069	71.25	-41.25	-33.75	18.75	67.5	-30	-30	-26.25
1070	71.25	-30	-15	30	78.75	-18.75	-22.5	-18.75
1071	63.75	-30	-3.75	33.75	82.5	-18.75	-22.5	-22.5
1072	71.25	-26.25	-3.75	33.75	75	-30	-33.75	-30
1073	78.75	-22.5	-3.75	30	67.5	-41.25	-45	-37.5
1074	63.75	-33.75	-7.5	30	67.5	-41.25	-41.25	-37.5
1075	41.25	-45	-7.5	33.75	67.5	-48.75	-52.5	-45
1076	30	-60	-11.25	22.5	60	-60	-67.5	-56.25
1077	11.25	-75	-11.25	18.75	52.5	-63.75	-71.25	-60
1078	0	-75	-3.75	18.75	56.25	-63.75	-71.25	-60
1079	30	-52.5	0	26.25	60	-60	-67.5	-60
1080	41.25	-56.25	0	22.5	56.25	-63.75	-71.25	-67.5
1081	-3.75	-97.5	-11.25	0	41.25	-78.75	-93.75	-86.25
1082	-48.75	-138.75	-18.75	-11.25	30	-90	-105	-101.25
1083	-48.75	-135	-15	-11.25	30	-86.25	-105	-101.25
1084	0	-86.25	-3.75	0	41.25	-78.75	-93.75	-90
1085	30	-60	3.75	11.25	52.5	-71.25	-86.25	-82.5
1086	45	-45	11.25	18.75	56.25	-63.75	-78.75	-78.75
1087	71.25	-30	15	22.5	60	-63.75	-78.75	-75
1088	45	-52.5	3.75	7.5	48.75	-75	-90	-86.25
1089	-7.5	-86.25	0	-3.75	41.25	-82.5	-97.5	-93.75
1090	-15	-97.5	-7.5	-11.25	33.75	-93.75	-112.5	-105
1091	-18.75	-97.5	-7.5	-11.25	33.75	-93.75	-116.25	-105
1092	-26.25	-97.5	3.75	-15	30	-97.5	-116.25	-108.75
1093	-26.25	-101.25	7.5	-15	26.25	-97.5	-112.5	-112.5
1094	-30	-105	3.75	-22.5	22.5	-97.5	-116.25	-116.25
1095	-30	-101.25	7.5	-18.75	30	-86.25	-108.75	-108.75
1096	-33.75	-101.25	15	-18.75	30	-86.25	-105	-112.5
1097	-37.5	-112.5	11.25	-22.5	22.5	-97.5	-116.25	-123.75
1098	-48.75	-116.25	3.75	-26.25	18.75	-108.75	-127.5	-127.5
1099	-63.75	-127.5	-7.5	-33.75	11.25	-116.25	-135	-135
1100	-56.25	-127.5	-3.75	-33.75	11.25	-116.25	-135	-135
1101	-41.25	-120	-3.75	-37.5	11.25	-116.25	-135	-131.25
1102	-37.5	-105	-3.75	-33.75	15	-105	-123.75	-123.75
1103	-30	-101.25	0	-37.5	18.75	-105	-123.75	-123.75
1104	-45	-135	-11.25	-56.25	0	-127.5	-146.25	-146.25
1105	-67.5	-157.5	-18.75	-63.75	-7.5	-131.25	-150	-150
1106	-67.5	-153.75	-15	-67.5	-7.5	-127.5	-146.25	-150
1107	-45	-131.25	-7.5	-60	-3.75	-123.75	-142.5	-146.25
1108	-26.25	-116.25	-7.5	-60	0	-123.75	-142.5	-142.5
1109	-45	-123.75	-15	-63.75	-7.5	-131.25	-146.25	-146.25
1110	-82.5	-120	-3.75	-52.5	7.5	-120	-135	-135
1111	-112.5	-112.5	7.5	-37.5	22.5	-105	-120	-120
1112	-90	-120	0	-45	11.25	-112.5	-127.5	-127.5
1113	-45	-127.5	-7.5	-63.75	-3.75	-127.5	-142.5	-142.5
1114	-48.75	-138.75	-15	-67.5	-7.5	-131.25	-150	-146.25
1115	-67.5	-142.5	-15	-71.25	-7.5	-127.5	-142.5	-146.25
1116	-63.75	-153.75	-26.25	-82.5	-18.75	-138.75	-157.5	-157.5
1117	-82.5	-172.5	-33.75	-90	-26.25	-146.25	-165	-165
1118	-78.75	-153.75	-22.5	-82.5	-15	-131.25	-150	-150
1119	-67.5	-131.25	-11.25	-67.5	0	-120	-138.75	-138.75
1120	-82.5	-142.5	-15	-67.5	-3.75	-123.75	-142.5	-146.25
1121	-63.75	-127.5	-11.25	-60	0	-120	-138.75	-138.75
1122	-37.5	-93.75	3.75	-41.25	18.75	-105	-123.75	-123.75
1123	-45	-93.75	3.75	-37.5	22.5	-101.25	-120	-123.75
1124	-56.25	-112.5	-7.5	-48.75	11.25	-116.25	-135	-135
1125	-56.25	-120	-11.25	-56.25	3.75	-116.25	-135	-135
1126	-67.5	-142.5	-22.5	-63.75	-3.75	-123.75	-138.75	-138.75
1127	-63.75	-135	-18.75	-60	3.75	-116.25	-138.75	-135
1128	-41.25	-112.5	-7.5	-48.75	11.25	-108.75	-127.5	-123.75
1129	-52.5	-135	-15	-60	3.75	-116.25	-135	-131.25
1130	-63.75	-138.75	-11.25	-60	7.5	-112.5	-135	-135
1131	-52.5	-116.25	0	-48.75	15	-105	-127.5	-127.5
1132	-60	-116.25	3.75	-45	18.75	-105	-123.75	-123.75
1133	-75	-120	3.75	-37.5	22.5	-97.5	-120	-116.25
1134	-63.75	-93.75	11.25	-26.25	33.75	-86.25	-108.75	-105
1135	-52.5	-105	-7.5	-37.5	22.5	-101.25	-123.75	-116.25
1136	-52.5	-135	-30	-60	3.75	-123.75	-142.5	-135
1137	-45	-120	-26.25	-56.25	7.5	-112.5	-135	-127.5
1138	-41.25	-101.25	-15	-45	18.75	-97.5	-120	-116.25
1139	-37.5	-108.75	-18.75	-48.75	18.75	-101.25	-123.75	-116.25
1140	-26.25	-116.25	-30	-56.25	15	-105	-127.5	-120
1141	-52.5	-142.5	-37.5	-67.5	3.75	-108.75	-131.25	-131.25
1142	-82.5	-165	-41.25	-75	-3.75	-116.25	-135	-138.75
1143	-37.5	-108.75	-15	-52.5	18.75	-97.5	-120	-116.25
1144	-22.5	-71.25	7.5	-30	37.5	-78.75	-105	-101.25
1145	-71.25	-97.5	-3.75	-33.75	33.75	-86.25	-108.75	-105
1146	-63.75	-97.5	-3.75	-33.75	33.75	-86.25	-108.75	-108.75
1147	-7.5	-71.25	-15	-30	33.75	-86.25	-112.5	-108.75
1148	-11.25	-82.5	-18.75	-37.5	26.25	-93.75	-120	-112.5
1149	-48.75	-108.75	-22.5	-48.75	15	-105	-127.5	-123.75
1150	-41.25	-101.25	-22.5	-48.75	22.5	-97.5	-123.75	-116.25
1151	-48.75	-112.5	-26.25	-48.75	18.75	-97.5	-123.75	-120
1152	-63.75	-135	-33.75	-56.25	15	-105	-127.5	-123.75
1153	-48.75	-127.5	-30	-56.25	18.75	-97.5	-123.75	-120
1154	-18.75	-93.75	-18.75	-48.75	30	-86.25	-112.5	-108.75
1155	-15	-82.5	-15	-45	33.75	-82.5	-108.75	-108.75
1156	-45	-105	-22.5	-52.5	26.25	-90	-116.25	-112.5
1157	-52.5	-112.5	-30	-52.5	22.5	-93.75	-116.25	-116.25
1158	-33.75	-93.75	-18.75	-41.25	33.75	-82.5	-105	-105
1159	-37.5	-90	-18.75	-33.75	37.5	-82.5	-105	-101.25
1160	-30	-90	-18.75	-41.25	30	-90	-108.75	-105
1161	-18.75	-90	-22.5	-48.75	26.25	-93.75	-112.5	-108.75
1162	-30	-108.75	-30	-56.25	18.75	-101.25	-120	-116.25
1163	-52.5	-123.75	-41.25	-60	15	-101.25	-123.75	-120
1164	-45	-120	-33.75	-60	18.75	-97.5	-120	-116.25
1165	-37.5	-116.25	-30	-56.25	18.75	-93.75	-116.25	-112.5
1166	-45	-116.25	-30	-60	18.75	-93.75	-120	-112.5
1167	-67.5	-127.5	-30	-63.75	15	-105	-127.5	-120
1168	-75	-138.75	-41.25	-71.25	3.75	-116.25	-138.75	-127.5
1169	-37.5	-101.25	-26.25	-52.5	18.75	-97.5	-120	-112.5
1170	-11.25	-71.25	-18.75	-41.25	33.75	-82.5	-105	-97.5
1171	-15	-78.75	-22.5	-41.25	33.75	-82.5	-105	-101.25
1172	-33.75	-112.5	-45	-63.75	11.25	-105	-123.75	-116.25
1173	-71.25	-142.5	-52.5	-75	3.75	-112.5	-131.25	-123.75
1174	-75	-131.25	-45	-63.75	15	-97.5	-120	-108.75
1175	-41.25	-108.75	-45	-63.75	15	-93.75	-116.25	-105
1176	-26.25	-108.75	-52.5	-75	3.75	-108.75	-127.5	-116.25
1177	-48.75	-127.5	-52.5	-78.75	0	-108.75	-131.25	-123.75
1178	-45	-123.75	-52.5	-78.75	0	-105	-127.5	-123.75
1179	-48.75	-112.5	-41.25	-67.5	15	-93.75	-116.25	-112.5
1180	-82.5	-135	-45	-75	7.5	-101.25	-123.75	-120
1181	-52.5	-112.5	-45	-75	7.5	-105	-123.75	-120
1182	-11.25	-71.25	-33.75	-60	18.75	-90	-108.75	-101.25
1183	-22.5	-82.5	-37.5	-60	15	-93.75	-108.75	-105
1184	-45	-101.25	-45	-67.5	3.75	-101.25	-120	-112.5
1185	-52.5	-105	-48.75	-75	3.75	-108.75	-123.75	-112.5
1186	-48.75	-112.5	-48.75	-78.75	0	-112.5	-127.5	-112.5
1187	-41.25	-116.25	-52.5	-82.5	-3.75	-112.5	-127.5	-116.25
1188	-45	-127.5	-52.5	-82.5	-3.75	-112.5	-123.75	-120
1189	-63.75	-146.25	-56.25	-93.75	-15	-123.75	-138.75	-127.5
1190	-45	-138.75	-56.25	-93.75	-15	-120	-135	-127.5
1191	-22.5	-116.25	-48.75	-86.25	-7.5	-116.25	-131.25	-123.75
1192	-45	-120	-48.75	-86.25	-7.5	-120	-135	-127.5
1193	-37.5	-116.25	-52.5	-86.25	-7.5	-116.25	-135	-127.5
1194	-30	-105	-48.75	-82.5	0	-112.5	-131.25	-123.75
1195	-63.75	-127.5	-52.5	-82.5	-3.75	-116.25	-135	-123.75
1196	-67.5	-146.25	-63.75	-90	-11.25	-120	-138.75	-127.5
1197	-26.25	-120	-63.75	-90	-11.25	-116.25	-131.25	-120
1198	-11.25	-97.5	-52.5	-86.25	-3.75	-112.5	-123.75	-112.5
1199	-30	-116.25	-60	-97.5	-15	-123.75	-138.75	-120
1200	-45	-127.5	-60	-97.5	-18.75	-120	-135	-120
1201	-67.5	-142.5	-60	-101.25	-18.75	-120	-135	-123.75
1202	-78.75	-157.5	-63.75	-108.75	-22.5	-123.75	-138.75	-131.25
1203	-75	-153.75	-60	-105	-18.75	-120	-135	-131.25
1204	-67.5	-131.25	-52.5	-93.75	-11.25	-116.25	-127.5	-120
1205	-71.25	-120	-48.75	-90	-11.25	-112.5	-127.5	-116.25
1206	-63.75	-123.75	-52.5	-93.75	-15	-120	-135	-123.75
1207	-33.75	-108.75	-56.25	-90	-11.25	-120	-135	-120
1208	-22.5	-101.25	-56.25	-86.25	-7.5	-116.25	-131.25	-120
1209	-30	-116.25	-63.75	-97.5	-18.75	-123.75	-138.75	-127.5
1210	-48.75	-127.5	-63.75	-101.25	-18.75	-123.75	-138.75	-127.5
1211	-60	-135	-63.75	-101.25	-22.5	-127.5	-146.25	-131.25
1212	-56.25	-138.75	-60	-105	-22.5	-131.25	-146.25	-131.25
1213	-60	-146.25	-60	-105	-22.5	-127.5	-142.5	-131.25
1214	-48.75	-150	-67.5	-112.5	-30	-131.25	-146.25	-135
1215	-11.25	-127.5	-67.5	-112.5	-26.25	-127.5	-142.5	-131.25
1216	7.5	-120	-71.25	-120	-33.75	-135	-153.75	-150
1217	-41.25	-150	-82.5	-127.5	-45	-150	-168.75	-161.25
1218	-165	-187.5	-71.25	-112.5	-30	-135	-153.75	-142.5
1219	-202.5	-195	-60	-97.5	-18.75	-127.5	-142.5	-127.5
1220	-37.5	-108.75	-56.25	-90	-15	-120	-135	-120
1221	60	-48.75	-48.75	-86.25	-7.5	-112.5	-123.75	-112.5
1222	-71.25	-101.25	-37.5	-78.75	0	-101.25	-116.25	-105
1223	-150	-127.5	-33.75	-75	7.5	-90	-105	-93.75
1224	-63.75	-131.25	-67.5	-105	-22.5	-123.75	-138.75	-123.75
1225	-11.25	-153.75	-97.5	-142.5	-60	-161.25	-176.25	-161.25
1226	-52.5	-165	-90	-138.75	-52.5	-153.75	-168.75	-153.75
1227	-67.5	-146.25	-71.25	-120	-37.5	-142.5	-153.75	-138.75
1228	-56.25	-127.5	-60	-105	-22.5	-131.25	-150	-131.25
1229	-60	-131.25	-63.75	-108.75	-26.25	-135	-146.25	-131.25
1230	-48.75	-120	-63.75	-101.25	-22.5	-131.25	-142.5	-127.5
1231	-26.25	-101.25	-56.25	-93.75	-15	-123.75	-138.75	-123.75
1232	-33.75	-112.5	-63.75	-101.25	-18.75	-127.5	-142.5	-131.25
1233	-41.25	-120	-63.75	-101.25	-18.75	-123.75	-142.5	-127.5
1234	-30	-112.5	-63.75	-105	-18.75	-123.75	-142.5	-123.75
1235	-30	-112.5	-63.75	-105	-22.5	-123.75	-138.75	-123.75
1236	-45	-127.5	-71.25	-112.5	-26.25	-127.5	-142.5	-127.5
1237	-48.75	-138.75	-78.75	-120	-33.75	-135	-150	-131.25
1238	-52.5	-142.5	-71.25	-123.75	-33.75	-135	-150	-135
1239	-52.5	-135	-67.5	-120	-33.75	-131.25	-146.25	-135
1240	-48.75	-123.75	-63.75	-112.5	-26.25	-127.5	-142.5	-131.25
1241	-45	-120	-63.75	-108.75	-22.5	-127.5	-138.75	-127.5
1242	-45	-116.25	-60	-105	-15	-120	-135	-120
1243	-45	-112.5	-63.75	-105	-18.75	-123.75	-138.75	-123.75
1244	-37.5	-116.25	-67.5	-112.5	-26.25	-131.25	-142.5	-127.5
1245	-41.25	-127.5	-75	-120	-37.5	-138.75	-150	-135
1246	-37.5	-127.5	-78.75	-120	-37.5	-138.75	-150	-138.75
1247	-56.25	-131.25	-75	-120	-33.75	-135	-150	-135
1248	-75	-146.25	-75	-120	-33.75	-135	-150	-138.75
1249	-60	-142.5	-75	-120	-33.75	-138.75	-157.5	-142.5
1250	-48.75	-138.75	-75	-123.75	-33.75	-138.75	-157.5	-142.5
1251	-90	-176.25	-90	-138.75	-48.75	-153.75	-168.75	-153.75
1252	-142.5	-228.75	-112.5	-157.5	-63.75	-168.75	-183.75	-172.5
1253	-138.75	-217.5	-105	-146.25	-56.25	-161.25	-176.25	-161.25
1254	-33.75	-101.25	-67.5	-105	-15	-123.75	-138.75	-123.75
1255	33.75	-30	-41.25	-75	11.25	-97.5	-112.5	-97.5
1256	26.25	-52.5	-52.5	-86.25	0	-105	-123.75	-105
1257	15	-67.5	-60	-97.5	-7.5	-112.5	-131.25	-116.25
1258	-11.25	-78.75	-60	-97.5	-11.25	-112.5	-131.25	-116.25
1259	-22.5	-86.25	-56.25	-97.5	-11.25	-116.25	-135	-116.25
1260	-22.5	-86.25	-48.75	-97.5	-11.25	-116.25	-135	-116.25
1261	-33.75	-82.5	-41.25	-93.75	-3.75	-108.75	-127.5	-112.5
1262	-33.75	-63.75	-30	-82.5	7.5	-97.5	-112.5	-105
1263	-37.5	-56.25	-15	-71.25	15	-93.75	-108.75	-93.75
1264	-37.5	-63.75	-15	-75	11.25	-101.25	-120	-105
1265	-37.5	-63.75	-15	-71.25	15	-97.5	-120	-108.75
1266	-22.5	-48.75	-11.25	-60	22.5	-90	-112.5	-101.25
1267	-7.5	-48.75	-22.5	-60	15	-97.5	-120	-108.75
1268	0	-60	-26.25	-63.75	15	-101.25	-120	-108.75
1269	3.75	-60	-22.5	-67.5	15	-101.25	-116.25	-108.75
1270	-18.75	-63.75	-15	-60	22.5	-93.75	-108.75	-101.25
1271	-37.5	-63.75	-11.25	-52.5	30	-86.25	-105	-93.75
1272	-30	-67.5	-11.25	-60	22.5	-90	-108.75	-101.25
1273	-22.5	-71.25	-18.75	-67.5	11.25	-93.75	-112.5	-108.75
1274	-30	-60	-11.25	-60	22.5	-86.25	-108.75	-105
1275	-37.5	-52.5	-3.75	-52.5	30	-78.75	-101.25	-97.5
1276	-41.25	-52.5	-3.75	-56.25	30	-78.75	-93.75	-90
1277	-41.25	-48.75	-15	-56.25	26.25	-78.75	-93.75	-90
1278	-15	-7.5	-15	-41.25	48.75	-60	-75	-67.5
1279	11.25	-3.75	-33.75	-45	41.25	-67.5	-78.75	-67.5
1280	-15	-52.5	-67.5	-75	15	-93.75	-105	-90
1281	-37.5	-63.75	-75	-78.75	15	-93.75	-101.25	-86.25
1282	-26.25	-67.5	-78.75	-82.5	11.25	-93.75	-108.75	-90
1283	-15	-75	-90	-93.75	0	-105	-116.25	-97.5
1284	-30	-67.5	-78.75	-82.5	11.25	-93.75	-105	-86.25
1285	-3.75	-45	-71.25	-78.75	22.5	-82.5	-93.75	-75
1286	41.25	-37.5	-86.25	-93.75	7.5	-93.75	-101.25	-86.25
1287	56.25	-30	-93.75	-101.25	3.75	-97.5	-101.25	-86.25
1288	37.5	-41.25	-90	-101.25	3.75	-97.5	-101.25	-86.25
1289	18.75	-52.5	-86.25	-97.5	0	-101.25	-108.75	-93.75
1290	33.75	-37.5	-78.75	-90	7.5	-93.75	-105	-86.25
1291	26.25	-41.25	-82.5	-93.75	3.75	-105	-112.5	-90
1292	3.75	-52.5	-78.75	-93.75	3.75	-108.75	-112.5	-90
1293	26.25	-56.25	-78.75	-101.25	-7.5	-116.25	-123.75	-101.25
1294	56.25	-67.5	-93.75	-112.5	-18.75	-127.5	-135	-112.5
1295	11.25	-82.5	-78.75	-97.5	0	-105	-116.25	-97.5
1296	-71.25	-82.5	-48.75	-75	26.25	-75	-86.25	-71.25
1297	-41.25	-86.25	-60	-90	11.25	-90	-101.25	-90
1298	33.75	-90	-90	-123.75	-22.5	-123.75	-135	-123.75
1299	7.5	-90	-75	-112.5	-15	-116.25	-127.5	-116.25
1300	-7.5	-86.25	-71.25	-108.75	-11.25	-112.5	-123.75	-108.75
1301	-11.25	-90	-75	-116.25	-18.75	-120	-127.5	-116.25
1302	-30	-90	-71.25	-108.75	-18.75	-120	-127.5	-116.25
1303	-45	-101.25	-78.75	-108.75	-22.5	-131.25	-138.75	-123.75
1304	-37.5	-112.5	-78.75	-116.25	-26.25	-135	-150	-127.5
1305	-37.5	-116.25	-78.75	-120	-33.75	-138.75	-150	-131.25
1306	-33.75	-116.25	-82.5	-120	-33.75	-142.5	-150	-131.25
1307	-37.5	-120	-90	-127.5	-37.5	-146.25	-157.5	-138.75
1308	-60	-146.25	-97.5	-138.75	-48.75	-153.75	-165	-146.25
1309	-82.5	-165	-101.25	-146.25	-56.25	-161.25	-168.75	-153.75
1310	-78.75	-150	-82.5	-135	-41.25	-146.25	-157.5	-142.5
1311	-56.25	-123.75	-75	-123.75	-30	-135	-146.25	-131.25
1312	-82.5	-161.25	-93.75	-142.5	-48.75	-153.75	-165	-150
1313	-131.25	-213.75	-116.25	-157.5	-71.25	-176.25	-187.5	-172.5
1314	-112.5	-191.25	-108.75	-150	-63.75	-172.5	-180	-161.25
1315	-45	-123.75	-90	-127.5	-45	-153.75	-157.5	-142.5
1316	0	-86.25	-82.5	-120	-33.75	-138.75	-146.25	-131.25
1317	15	-75	-75	-116.25	-26.25	-135	-142.5	-120
1318	7.5	-82.5	-78.75	-116.25	-30	-135	-146.25	-123.75
1319	-15	-105	-82.5	-120	-33.75	-138.75	-150	-127.5
1320	-52.5	-142.5	-86.25	-127.5	-37.5	-146.25	-157.5	-135
1321	-63.75	-150	-90	-138.75	-45	-153.75	-161.25	-138.75
1322	-37.5	-123.75	-78.75	-131.25	-37.5	-142.5	-153.75	-135
1323	-33.75	-116.25	-75	-120	-30	-135	-150	-131.25
1324	-41.25	-120	-75	-120	-30	-138.75	-150	-131.25
1325	-26.25	-108.75	-78.75	-120	-30	-138.75	-150	-135
1326	-15	-93.75	-75	-116.25	-26.25	-135	-150	-127.5
1327	-30	-101.25	-82.5	-116.25	-30	-138.75	-153.75	-131.25
1328	-37.5	-120	-90	-127.5	-37.5	-146.25	-161.25	-138.75
1329	-30	-123.75	-86.25	-123.75	-33.75	-146.25	-157.5	-138.75
1330	-41.25	-131.25	-78.75	-116.25	-30	-142.5	-157.5	-138.75
1331	-41.25	-146.25	-75	-112.5	-37.5	-153.75	-172.5	-153.75
1332	-33.75	-165	-56.25	-97.5	-37.5	-165	-187.5	-172.5
1333	-52.5	-191.25	-7.5	-56.25	-26.25	-172.5	-202.5	-195
1334	-48.75	-213.75	45	-7.5	-18.75	-187.5	-225	-221.25
1335	-15	-228.75	90	22.5	-26.25	-217.5	-262.5	-258.75
1336	-3.75	-232.5	135	60	-22.5	-232.5	-281.25	-277.5
1337	-7.5	-213.75	180	127.5	18.75	-210	-262.5	-266.25
1338	3.75	-157.5	228.75	213.75	86.25	-153.75	-217.5	-225
1339	33.75	-97.5	266.25	288.75	150	-105	-176.25	-183.75
1340	75	-63.75	281.25	348.75	206.25	-56.25	-131.25	-146.25
1341	112.5	-22.5	292.5	405	270	7.5	-67.5	-90
1342	142.5	37.5	300	450	330	75	0	-26.25
1343	195	116.25	292.5	480	382.5	146.25	75	48.75
1344	262.5	202.5	273.75	528.75	465	247.5	180	150
1345	322.5	303.75	258.75	592.5	570	371.25	303.75	266.25
1346	367.5	435	240	630	663.75	498.75	438.75	397.5
1347	412.5	581.25	187.5	630	757.5	633.75	588.75	543.75
1348	450	742.5	142.5	648.75	870	795	757.5	705
1349	476.25	930	131.25	701.25	1005	967.5	937.5	877.5
1350	555	1200	82.5	712.5	1117.5	1151.25	1147.5	1098.75
1351	641.25	1451.25	-33.75	652.5	1200	1323.75	1365	1323.75
1352	667.5	1533.75	-180	551.25	1241.25	1447.5	1515	1470
1353	678.75	1590	-315	405	1256.25	1552.5	1638.75	1590
1354	641.25	1642.5	-397.5	270	1267.5	1642.5	1743.75	1680
1355	551.25	1582.5	-378.75	255	1320	1706.25	1781.25	1680
1356	480	1477.5	-341.25	288.75	1380	1747.5	1781.25	1635
1357	412.5	1406.25	-356.25	236.25	1376.25	1740	1751.25	1582.5
1358	288.75	1293.75	-382.5	116.25	1286.25	1642.5	1642.5	1477.5
1359	187.5	1110	-393.75	-15	1113.75	1421.25	1417.5	1263.75
1360	101.25	903.75	-371.25	-123.75	900	1140	1132.5	1005
1361	18.75	720	-345	-247.5	641.25	828.75	843.75	765
1362	-67.5	566.25	-345	-397.5	356.25	510	558.75	543.75
1363	-142.5	423.75	-386.25	-558.75	90	232.5	307.5	348.75
1364	-183.75	277.5	-412.5	-652.5	-75	45	123.75	183.75
1365	-187.5	157.5	-393.75	-630	-108.75	-33.75	15	60
1366	-187.5	78.75	-378.75	-588.75	-108.75	-67.5	-41.25	-11.25
1367	-195	33.75	-386.25	-562.5	-97.5	-67.5	-56.25	-33.75
1368	-180	15	-401.25	-521.25	-75	-48.75	-45	-30
1369	-165	3.75	-386.25	-468.75	-56.25	-37.5	-33.75	-26.25
1370	-161.25	-18.75	-360	-435	-67.5	-52.5	-48.75	-37.5
1371	-142.5	-41.25	-345	-405	-82.5	-78.75	-67.5	-52.5
1372	-131.25	-60	-322.5	-363.75	-78.75	-86.25	-78.75	-60
1373	-138.75	-56.25	-288.75	-307.5	-52.5	-78.75	-71.25	-52.5
1374	-127.5	-26.25	-247.5	-243.75	-11.25	-52.5	-52.5	-33.75
1375	-78.75	0	-225	-187.5	22.5	-26.25	-33.75	-18.75
1376	-30	15	-191.25	-142.5	56.25	-11.25	-22.5	-11.25
1377	-30	15	-150	-97.5	82.5	3.75	-15	-7.5
1378	-18.75	15	-120	-71.25	93.75	7.5	-15	-11.25
1379	7.5	18.75	-101.25	-52.5	97.5	7.5	-18.75	-18.75
1380	11.25	0	-82.5	-41.25	97.5	3.75	-22.5	-22.5
1381	0	-33.75	-82.5	-48.75	86.25	-15	-45	-41.25
1382	-7.5	-41.25	-75	-41.25	86.25	-18.75	-48.75	-45
1383	-7.5	-30	-60	-33.75	90	-18.75	-48.75	-45
1384	-7.5	-41.25	-63.75	-37.5	78.75	-30	-63.75	-56.25
1385	-22.5	-48.75	-60	-33.75	75	-33.75	-63.75	-60
1386	-48.75	-41.25	-48.75	-22.5	86.25	-26.25	-56.25	-52.5
1387	-33.75	-37.5	-48.75	-18.75	82.5	-33.75	-63.75	-52.5
1388	0	-56.25	-75	-45	52.5	-60	-93.75	-78.75
1389	7.5	-63.75	-82.5	-52.5	48.75	-63.75	-97.5	-82.5
1390	18.75	-41.25	-67.5	-37.5	60	-48.75	-78.75	-71.25
1391	11.25	-45	-67.5	-41.25	56.25	-56.25	-86.25	-75
1392	0	-52.5	-67.5	-41.25	52.5	-60	-90	-78.75
1393	3.75	-56.25	-63.75	-41.25	52.5	-60	-90	-78.75
1394	3.75	-63.75	-63.75	-41.25	52.5	-60	-90	-82.5
1395	3.75	-60	-60	-41.25	52.5	-63.75	-93.75	-82.5
1396	3.75	-56.25	-60	-33.75	56.25	-60	-90	-78.75
1397	-15	-60	-52.5	-26.25	63.75	-52.5	-82.5	-71.25
1398	-41.25	-67.5	-48.75	-18.75	67.5	-52.5	-78.75	-63.75
1399	-15	-60	-56.25	-22.5	60	-60	-86.25	-71.25
1400	7.5	-67.5	-75	-33.75	52.5	-67.5	-97.5	-82.5
1401	3.75	-71.25	-78.75	-37.5	48.75	-67.5	-97.5	-82.5
1402	18.75	-45	-56.25	-22.5	67.5	-48.75	-78.75	-63.75
1403	26.25	-33.75	-56.25	-18.75	67.5	-48.75	-75	-60
1404	41.25	-26.25	-52.5	-15	71.25	-45	-75	-60
1405	30	-48.75	-56.25	-22.5	67.5	-45	-78.75	-63.75
1406	15	-67.5	-63.75	-26.25	63.75	-52.5	-82.5	-71.25
1407	18.75	-52.5	-60	-22.5	67.5	-48.75	-75	-63.75
1408	18.75	-41.25	-56.25	-15	75	-41.25	-67.5	-60
1409	7.5	-37.5	-48.75	-3.75	82.5	-33.75	-60	-56.25
1410	-7.5	-37.5	-48.75	0	90	-30	-63.75	-52.5
1411	18.75	-33.75	-56.25	0	82.5	-37.5	-67.5	-56.25
1412	48.75	-30	-67.5	-11.25	75	-41.25	-71.25	-67.5
1413	33.75	-33.75	-67.5	-7.5	78.75	-37.5	-71.25	-60
1414	18.75	-41.25	-67.5	-7.5	82.5	-37.5	-67.5	-56.25
1415	26.25	-45	-67.5	-7.5	78.75	-33.75	-67.5	-60
1416	22.5	-56.25	-75	-11.25	78.75	-37.5	-71.25	-63.75
1417	11.25	-63.75	-71.25	-11.25	82.5	-33.75	-71.25	-60
1418	15	-56.25	-67.5	-3.75	86.25	-30	-63.75	-56.25
1419	26.25	-37.5	-60	3.75	90	-26.25	-56.25	-52.5
1420	33.75	-37.5	-63.75	3.75	90	-22.5	-60	-52.5
1421	30	-33.75	-67.5	7.5	93.75	-15	-48.75	-48.75
1422	22.5	-15	-56.25	26.25	112.5	0	-33.75	-33.75
1423	22.5	-18.75	-60	26.25	112.5	3.75	-33.75	-33.75
1424	60	-11.25	-67.5	18.75	108.75	-3.75	-37.5	-37.5
1425	86.25	7.5	-63.75	22.5	112.5	0	-30	-30
1426	75	-3.75	-67.5	26.25	112.5	7.5	-22.5	-22.5
1427	67.5	-11.25	-67.5	22.5	112.5	0	-33.75	-26.25
1428	45	-33.75	-75	15	105	-7.5	-45	-37.5
1429	15	-41.25	-71.25	22.5	112.5	3.75	-30	-30
1430	15	-15	-52.5	37.5	131.25	22.5	-11.25	-18.75
1431	33.75	-15	-56.25	37.5	127.5	18.75	-15	-18.75
1432	63.75	-18.75	-71.25	22.5	112.5	3.75	-30	-33.75
1433	78.75	3.75	-63.75	33.75	123.75	15	-18.75	-22.5
1434	97.5	37.5	-56.25	52.5	142.5	30	-3.75	-7.5
1435	105	41.25	-63.75	52.5	142.5	26.25	-3.75	-3.75
1436	93.75	22.5	-71.25	45	135	22.5	-11.25	-11.25
1437	97.5	30	-71.25	48.75	138.75	30	-3.75	-3.75
1438	101.25	33.75	-71.25	52.5	146.25	33.75	0	3.75
1439	101.25	15	-71.25	52.5	142.5	33.75	-3.75	0
1440	108.75	15	-75	48.75	135	26.25	-7.5	-3.75
1441	97.5	18.75	-67.5	48.75	138.75	30	-3.75	0
1442	86.25	15	-67.5	48.75	138.75	33.75	-3.75	0
1443	63.75	11.25	-63.75	60	153.75	45	11.25	11.25
1444	45	7.5	-56.25	67.5	157.5	48.75	15	15
1445	82.5	33.75	-52.5	71.25	161.25	52.5	18.75	22.5
1446	146.25	82.5	-52.5	78.75	168.75	63.75	30	30
1447	146.25	78.75	-60	82.5	168.75	60	26.25	30
1448	105	33.75	-71.25	67.5	153.75	45	11.25	18.75
1449	97.5	18.75	-78.75	63.75	153.75	45	15	18.75
1450	101.25	22.5	-86.25	63.75	157.5	52.5	22.5	22.5
1451	105	30	-78.75	67.5	161.25	56.25	26.25	26.25
1452	101.25	37.5	-71.25	71.25	165	56.25	26.25	33.75
1453	75	26.25	-71.25	71.25	165	60	30	37.5
1454	78.75	11.25	-82.5	60	157.5	56.25	26.25	30
1455	142.5	56.25	-67.5	78.75	172.5	67.5	37.5	45
1456	165	82.5	-63.75	82.5	176.25	71.25	41.25	45
1457	142.5	75	-71.25	78.75	168.75	63.75	37.5	41.25
1458	138.75	82.5	-63.75	86.25	180	71.25	45	52.5
1459	135	75	-75	82.5	176.25	71.25	48.75	52.5
1460	138.75	63.75	-82.5	75	165	60	37.5	45
1461	165	78.75	-82.5	78.75	172.5	71.25	45	56.25
1462	172.5	82.5	-78.75	78.75	172.5	75	52.5	63.75
1463	157.5	67.5	-82.5	75	168.75	71.25	48.75	56.25
1464	146.25	56.25	-82.5	71.25	168.75	71.25	48.75	60
1465	165	63.75	-82.5	71.25	168.75	71.25	52.5	60
1466	180	78.75	-78.75	71.25	168.75	75	52.5	63.75
1467	146.25	63.75	-75	71.25	168.75	71.25	52.5	63.75
1468	127.5	52.5	-78.75	67.5	161.25	63.75	48.75	60
1469	142.5	63.75	-78.75	71.25	161.25	67.5	52.5	63.75
1470	146.25	71.25	-78.75	71.25	161.25	67.5	52.5	67.5
1471	153.75	67.5	-90	67.5	157.5	63.75	52.5	63.75
1472	180	75	-90	63.75	157.5	67.5	52.5	71.25
1473	206.25	105	-78.75	71.25	161.25	71.25	60	78.75
1474	217.5	127.5	-78.75	67.5	157.5	71.25	60	78.75
1475	210	123.75	-90	56.25	150	63.75	56.25	71.25
1476	183.75	90	-93.75	48.75	142.5	60	48.75	67.5
1477	172.5	67.5	-90	48.75	138.75	52.5	45	67.5
1478	176.25	75	-78.75	48.75	142.5	52.5	48.75	71.25
1479	187.5	90	-75	48.75	138.75	52.5	48.75	75
1480	210	120	-67.5	56.25	142.5	56.25	56.25	78.75
1481	210	120	-63.75	56.25	142.5	56.25	56.25	78.75
1482	180	97.5	-71.25	52.5	135	48.75	48.75	71.25
1483	161.25	93.75	-78.75	48.75	127.5	45	45	67.5
1484	146.25	90	-75	45	123.75	41.25	41.25	63.75
1485	168.75	97.5	-71.25	45	123.75	41.25	41.25	63.75
1486	198.75	108.75	-71.25	41.25	120	37.5	37.5	63.75
1487	195	101.25	-71.25	37.5	112.5	30	30	60
1488	176.25	82.5	-75	30	105	22.5	22.5	52.5
1489	165	71.25	-71.25	22.5	101.25	18.75	18.75	45
1490	157.5	71.25	-60	30	105	22.5	18.75	45
1491	146.25	71.25	-48.75	33.75	108.75	22.5	22.5	45
1492	127.5	63.75	-45	37.5	108.75	22.5	22.5	45
1493	131.25	71.25	-41.25	45	112.5	22.5	18.75	45
1494	146.25	82.5	-41.25	41.25	105	15	11.25	37.5
1495	127.5	71.25	-41.25	41.25	105	7.5	7.5	33.75
1496	97.5	56.25	-37.5	41.25	105	7.5	3.75	33.75
1497	135	60	-41.25	33.75	97.5	0	-3.75	22.5
1498	161.25	56.25	-48.75	26.25	82.5	-18.75	-22.5	7.5
1499	123.75	37.5	-41.25	26.25	82.5	-18.75	-26.25	3.75
1500	90	22.5	-33.75	30	82.5	-15	-22.5	3.75
1501	93.75	22.5	-22.5	33.75	86.25	-15	-22.5	0
1502	97.5	26.25	-18.75	37.5	90	-11.25	-22.5	-3.75
1503	75	18.75	-7.5	41.25	90	-15	-26.25	-3.75
1504	71.25	11.25	-7.5	37.5	82.5	-22.5	-37.5	-15
1505	52.5	-11.25	-15	30	78.75	-33.75	-45	-26.25
1506	18.75	-30	-22.5	26.25	71.25	-45	-56.25	-33.75
1507	48.75	-3.75	-15	30	75	-41.25	-52.5	-30
1508	93.75	26.25	-7.5	37.5	82.5	-33.75	-45	-26.25
1509	86.25	22.5	-3.75	33.75	82.5	-33.75	-48.75	-30
1510	56.25	-3.75	-7.5	30	75	-41.25	-56.25	-37.5
1511	37.5	-18.75	-7.5	30	78.75	-41.25	-56.25	-41.25
1512	48.75	-22.5	-11.25	22.5	71.25	-45	-63.75	-48.75
1513	56.25	-30	-15	11.25	63.75	-52.5	-71.25	-60
1514	33.75	-41.25	-15	7.5	56.25	-56.25	-75	-67.5
1515	11.25	-52.5	-15	3.75	52.5	-63.75	-86.25	-75
1516	0	-60	-15	3.75	56.25	-67.5	-90	-78.75
1517	7.5	-41.25	-7.5	11.25	60	-60	-86.25	-75
1518	0	-26.25	7.5	26.25	71.25	-52.5	-78.75	-67.5
1519	7.5	-26.25	7.5	22.5	67.5	-56.25	-78.75	-63.75
1520	37.5	-26.25	-3.75	11.25	56.25	-63.75	-86.25	-71.25
1521	37.5	-33.75	-7.5	3.75	56.25	-63.75	-90	-78.75
1522	7.5	-56.25	-11.25	-3.75	48.75	-75	-101.25	-90
1523	-18.75	-71.25	-18.75	-15	37.5	-82.5	-108.75	-93.75
1524	-22.5	-71.25	-11.25	-11.25	45	-71.25	-97.5	-86.25
1525	-22.5	-75	-11.25	-15	45	-75	-97.5	-93.75
1526	-18.75	-75	-11.25	-18.75	41.25	-78.75	-108.75	-97.5
1527	-15	-56.25	-3.75	-11.25	48.75	-71.25	-101.25	-93.75
1528	-30	-60	-3.75	-11.25	45	-71.25	-101.25	-93.75
1529	-37.5	-78.75	-7.5	-15	37.5	-82.5	-108.75	-101.25
1530	-15	-71.25	-15	-18.75	33.75	-90	-116.25	-105
1531	-7.5	-56.25	-11.25	-11.25	41.25	-86.25	-108.75	-101.25
1532	-26.25	-63.75	-11.25	-15	41.25	-82.5	-108.75	-97.5
1533	-37.5	-82.5	-18.75	-26.25	26.25	-90	-120	-108.75
1534	-22.5	-86.25	-22.5	-33.75	22.5	-97.5	-123.75	-112.5
1535	-7.5	-82.5	-22.5	-37.5	22.5	-97.5	-120	-108.75
1536	-30	-86.25	-15	-30	26.25	-90	-116.25	-105
1537	-78.75	-101.25	-7.5	-26.25	30	-82.5	-112.5	-105
1538	-82.5	-116.25	-11.25	-33.75	26.25	-90	-116.25	-108.75
1539	-67.5	-127.5	-22.5	-48.75	11.25	-105	-131.25	-127.5
1540	-90	-131.25	-18.75	-45	11.25	-108.75	-138.75	-127.5
1541	-71.25	-93.75	3.75	-22.5	33.75	-82.5	-112.5	-105
1542	-41.25	-67.5	3.75	-15	37.5	-78.75	-105	-101.25
1543	-26.25	-71.25	-11.25	-30	22.5	-101.25	-127.5	-116.25
1544	-41.25	-90	-22.5	-37.5	15	-105	-135	-123.75
1545	-52.5	-97.5	-22.5	-37.5	18.75	-101.25	-127.5	-120
1546	-60	-105	-26.25	-41.25	11.25	-105	-131.25	-120
1547	-71.25	-112.5	-26.25	-41.25	11.25	-105	-135	-123.75
1548	-78.75	-127.5	-33.75	-48.75	3.75	-108.75	-138.75	-127.5
1549	-78.75	-138.75	-33.75	-56.25	3.75	-108.75	-138.75	-127.5
1550	-78.75	-142.5	-30	-56.25	7.5	-108.75	-138.75	-127.5
1551	-97.5	-146.25	-30	-52.5	11.25	-105	-135	-131.25
1552	-116.25	-138.75	-18.75	-41.25	18.75	-93.75	-127.5	-123.75
1553	-108.75	-105	0	-18.75	37.5	-78.75	-108.75	-105
1554	-78.75	-86.25	0	-11.25	45	-75	-108.75	-97.5
1555	-60	-105	-22.5	-33.75	22.5	-97.5	-127.5	-116.25
1556	-75	-123.75	-33.75	-45	15	-105	-138.75	-123.75
1557	-105	-146.25	-37.5	-48.75	11.25	-108.75	-138.75	-127.5
1558	-105	-150	-41.25	-52.5	7.5	-108.75	-142.5	-127.5
1559	-78.75	-138.75	-37.5	-52.5	11.25	-105	-138.75	-123.75
1560	-78.75	-142.5	-37.5	-52.5	11.25	-105	-138.75	-123.75
1561	-108.75	-157.5	-37.5	-52.5	11.25	-101.25	-135	-123.75
1562	-142.5	-168.75	-37.5	-52.5	11.25	-101.25	-135	-127.5
1563	-138.75	-168.75	-37.5	-52.5	11.25	-105	-138.75	-131.25
1564	-112.5	-161.25	-45	-56.25	7.5	-112.5	-146.25	-131.25
1565	-112.5	-142.5	-33.75	-41.25	15	-105	-135	-120
1566	-142.5	-142.5	-18.75	-22.5	33.75	-86.25	-116.25	-105
1567	-146.25	-165	-33.75	-33.75	22.5	-93.75	-123.75	-112.5
1568	-127.5	-176.25	-60	-60	0	-112.5	-146.25	-135
1569	-120	-172.5	-63.75	-63.75	-3.75	-116.25	-150	-142.5
1570	-153.75	-195	-67.5	-71.25	-7.5	-120	-150	-146.25
1571	-176.25	-221.25	-71.25	-75	-11.25	-127.5	-157.5	-146.25
1572	-165	-225	-67.5	-71.25	-7.5	-123.75	-153.75	-142.5
1573	-176.25	-232.5	-60	-63.75	0	-112.5	-142.5	-135
1574	-183.75	-232.5	-63.75	-67.5	-3.75	-116.25	-146.25	-138.75
1575	-168.75	-221.25	-67.5	-67.5	-3.75	-112.5	-142.5	-135
1576	-172.5	-228.75	-71.25	-71.25	-3.75	-112.5	-142.5	-142.5
1577	-183.75	-228.75	-71.25	-67.5	0	-112.5	-146.25	-142.5
1578	-183.75	-217.5	-67.5	-60	0	-116.25	-150	-138.75
1579	-213.75	-243.75	-78.75	-67.5	-7.5	-127.5	-157.5	-146.25
1580	-210	-247.5	-82.5	-75	-11.25	-127.5	-161.25	-150
1581	-168.75	-213.75	-78.75	-71.25	-7.5	-123.75	-153.75	-142.5
1582	-161.25	-202.5	-75	-67.5	-3.75	-116.25	-146.25	-135
1583	-180	-217.5	-75	-71.25	-3.75	-116.25	-146.25	-135
1584	-176.25	-232.5	-86.25	-78.75	-11.25	-123.75	-153.75	-146.25
1585	-176.25	-240	-86.25	-86.25	-18.75	-127.5	-157.5	-150
1586	-187.5	-243.75	-82.5	-82.5	-11.25	-120	-150	-146.25
1587	-198.75	-243.75	-78.75	-78.75	-7.5	-120	-150	-142.5
1588	-198.75	-247.5	-82.5	-82.5	-11.25	-123.75	-153.75	-150
1589	-195	-240	-82.5	-78.75	-7.5	-120	-150	-146.25
1590	-180	-206.25	-71.25	-60	7.5	-101.25	-131.25	-123.75
1591	-157.5	-198.75	-78.75	-67.5	3.75	-112.5	-138.75	-127.5
1592	-153.75	-221.25	-97.5	-86.25	-15	-127.5	-153.75	-146.25
1593	-172.5	-232.5	-97.5	-90	-18.75	-127.5	-153.75	-146.25
1594	-206.25	-232.5	-86.25	-78.75	-3.75	-116.25	-142.5	-131.25
1595	-191.25	-228.75	-90	-82.5	-7.5	-120	-146.25	-135
1596	-172.5	-243.75	-105	-105	-26.25	-135	-165	-153.75
1597	-191.25	-262.5	-105	-105	-26.25	-135	-161.25	-153.75
1598	-213.75	-255	-90	-90	-15	-123.75	-150	-142.5
1599	-221.25	-240	-82.5	-86.25	-11.25	-116.25	-146.25	-138.75
1600	-198.75	-228.75	-82.5	-86.25	-11.25	-120	-150	-138.75
1601	-172.5	-213.75	-78.75	-78.75	-3.75	-112.5	-142.5	-131.25
1602	-153.75	-195	-78.75	-75	0	-112.5	-138.75	-123.75
1603	-138.75	-191.25	-90	-78.75	-3.75	-116.25	-138.75	-127.5
1604	-146.25	-210	-97.5	-90	-15	-127.5	-153.75	-138.75
1605	-165	-217.5	-93.75	-90	-15	-123.75	-150	-135
1606	-168.75	-206.25	-86.25	-82.5	-7.5	-116.25	-142.5	-123.75
1607	-180	-202.5	-78.75	-78.75	-3.75	-112.5	-142.5	-123.75
1608	-180	-206.25	-75	-78.75	-3.75	-108.75	-138.75	-123.75
1609	-142.5	-206.25	-90	-97.5	-18.75	-123.75	-153.75	-135
1610	-146.25	-213.75	-93.75	-105	-26.25	-127.5	-153.75	-142.5
1611	-165	-206.25	-86.25	-93.75	-15	-123.75	-150	-135
1612	-142.5	-191.25	-78.75	-90	-11.25	-120	-150	-135
1613	-138.75	-195	-82.5	-93.75	-15	-123.75	-150	-138.75
1614	-157.5	-206.25	-86.25	-90	-15	-127.5	-153.75	-138.75
1615	-138.75	-202.5	-97.5	-97.5	-22.5	-131.25	-157.5	-138.75
1616	-116.25	-187.5	-97.5	-97.5	-22.5	-127.5	-153.75	-138.75
1617	-153.75	-183.75	-78.75	-82.5	-3.75	-108.75	-135	-116.25
1618	-157.5	-180	-75	-78.75	0	-105	-131.25	-112.5
1619	-112.5	-183.75	-90	-93.75	-15	-123.75	-146.25	-127.5
1620	-112.5	-206.25	-101.25	-108.75	-33.75	-135	-161.25	-142.5
1621	-153.75	-225	-101.25	-112.5	-33.75	-138.75	-161.25	-146.25
1622	-161.25	-213.75	-90	-105	-22.5	-123.75	-146.25	-135
1623	-153.75	-191.25	-78.75	-90	-7.5	-112.5	-138.75	-123.75
1624	-150	-191.25	-78.75	-90	-11.25	-120	-142.5	-127.5
1625	-153.75	-195	-86.25	-93.75	-18.75	-123.75	-146.25	-131.25
1626	-150	-183.75	-82.5	-90	-11.25	-120	-142.5	-120
1627	-123.75	-176.25	-90	-90	-15	-123.75	-146.25	-123.75
1628	-123.75	-202.5	-105	-108.75	-33.75	-142.5	-165	-142.5
1629	-157.5	-228.75	-112.5	-120	-41.25	-150	-168.75	-146.25
1630	-165	-221.25	-108.75	-116.25	-41.25	-146.25	-165	-142.5
1631	-150	-206.25	-101.25	-116.25	-37.5	-146.25	-165	-142.5
1632	-157.5	-213.75	-101.25	-120	-41.25	-142.5	-165	-146.25
1633	-187.5	-240	-108.75	-127.5	-45	-142.5	-168.75	-153.75
1634	-198.75	-240	-105	-123.75	-41.25	-138.75	-165	-150
1635	-168.75	-210	-93.75	-112.5	-33.75	-127.5	-153.75	-135
1636	-142.5	-195	-101.25	-112.5	-33.75	-131.25	-153.75	-138.75
1637	-142.5	-191.25	-101.25	-108.75	-33.75	-131.25	-153.75	-138.75
1638	-150	-187.5	-97.5	-105	-30	-131.25	-153.75	-135
1639	-146.25	-202.5	-108.75	-116.25	-41.25	-142.5	-165	-142.5
1640	-138.75	-228.75	-116.25	-123.75	-45	-146.25	-165	-146.25
1641	-153.75	-247.5	-120	-127.5	-48.75	-150	-168.75	-146.25
1642	-191.25	-236.25	-116.25	-123.75	-45	-146.25	-165	-146.25
1643	-210	-225	-105	-112.5	-33.75	-135	-153.75	-135
1644	-195	-240	-112.5	-123.75	-45	-142.5	-165	-146.25
1645	-165	-247.5	-127.5	-142.5	-63.75	-157.5	-183.75	-161.25
1646	-161.25	-236.25	-116.25	-138.75	-56.25	-153.75	-176.25	-157.5
1647	-180	-225	-108.75	-127.5	-45	-142.5	-165	-146.25
1648	-180	-232.5	-112.5	-131.25	-52.5	-150	-172.5	-153.75
1649	-157.5	-232.5	-123.75	-138.75	-60	-157.5	-180	-161.25
1650	-176.25	-228.75	-120	-131.25	-52.5	-153.75	-172.5	-157.5
1651	-202.5	-228.75	-112.5	-120	-41.25	-146.25	-165	-146.25
1652	-180	-225	-116.25	-127.5	-52.5	-153.75	-172.5	-150
1653	-161.25	-236.25	-127.5	-138.75	-60	-161.25	-180	-157.5
1654	-191.25	-262.5	-135	-146.25	-67.5	-168.75	-191.25	-168.75
1655	-213.75	-273.75	-135	-146.25	-67.5	-168.75	-187.5	-165
1656	-202.5	-270	-135	-153.75	-71.25	-172.5	-191.25	-168.75
1657	-202.5	-270	-135	-157.5	-71.25	-172.5	-195	-172.5
1658	-217.5	-277.5	-138.75	-161.25	-75	-176.25	-198.75	-176.25
1659	-217.5	-273.75	-131.25	-153.75	-71.25	-168.75	-195	-172.5
1660	-221.25	-277.5	-131.25	-150	-71.25	-168.75	-191.25	-172.5
1661	-236.25	-277.5	-131.25	-150	-71.25	-168.75	-195	-172.5
1662	-240	-277.5	-135	-150	-71.25	-168.75	-191.25	-165
1663	-240	-285	-138.75	-150	-71.25	-168.75	-187.5	-165
1664	-217.5	-273.75	-138.75	-150	-71.25	-172.5	-191.25	-165
1665	-210	-270	-138.75	-153.75	-71.25	-172.5	-195	-165
1666	-240	-288.75	-146.25	-157.5	-75	-176.25	-195	-172.5
1667	-262.5	-303.75	-142.5	-157.5	-75	-176.25	-195	-165
1668	-251.25	-311.25	-150	-168.75	-82.5	-180	-202.5	-172.5
1669	-236.25	-318.75	-153.75	-176.25	-90	-187.5	-210	-183.75
1670	-240	-315	-150	-172.5	-86.25	-183.75	-206.25	-183.75
1671	-236.25	-296.25	-142.5	-161.25	-75	-176.25	-198.75	-176.25
1672	-247.5	-300	-142.5	-161.25	-78.75	-180	-202.5	-180
1673	-266.25	-307.5	-146.25	-161.25	-78.75	-183.75	-206.25	-183.75
1674	-262.5	-300	-146.25	-157.5	-78.75	-183.75	-206.25	-180
1675	-255	-300	-150	-157.5	-78.75	-180	-202.5	-176.25
1676	-247.5	-300	-153.75	-161.25	-78.75	-180	-202.5	-176.25
1677	-251.25	-300	-153.75	-161.25	-82.5	-183.75	-202.5	-176.25
1678	-262.5	-292.5	-142.5	-153.75	-71.25	-172.5	-195	-168.75
1679	-270	-296.25	-138.75	-150	-67.5	-168.75	-191.25	-168.75
1680	-255	-303.75	-150	-161.25	-78.75	-180	-202.5	-180
1681	-258.75	-300	-138.75	-161.25	-78.75	-180	-206.25	-180
1682	-277.5	-292.5	-123.75	-150	-67.5	-172.5	-198.75	-172.5
1683	-281.25	-285	-116.25	-142.5	-63.75	-165	-187.5	-165
1684	-285	-288.75	-120	-146.25	-71.25	-172.5	-191.25	-172.5
1685	-281.25	-281.25	-116.25	-142.5	-63.75	-168.75	-191.25	-168.75
1686	-277.5	-270	-108.75	-135	-56.25	-161.25	-183.75	-165
1687	-285	-285	-112.5	-138.75	-63.75	-165	-191.25	-172.5
1688	-296.25	-307.5	-116.25	-142.5	-67.5	-168.75	-195	-176.25
1689	-285	-300	-112.5	-131.25	-56.25	-157.5	-183.75	-165
1690	-281.25	-285	-97.5	-116.25	-41.25	-142.5	-172.5	-153.75
1691	-285	-296.25	-101.25	-123.75	-48.75	-153.75	-183.75	-161.25
1692	-281.25	-311.25	-112.5	-135	-60	-165	-191.25	-172.5
1693	-281.25	-311.25	-105	-131.25	-56.25	-157.5	-187.5	-168.75
1694	-300	-315	-93.75	-127.5	-52.5	-153.75	-180	-165
1695	-315	-307.5	-86.25	-116.25	-41.25	-146.25	-176.25	-161.25
1696	-303.75	-285	-78.75	-105	-33.75	-138.75	-168.75	-150
1697	-288.75	-266.25	-82.5	-105	-30	-135	-165	-146.25
1698	-296.25	-270	-93.75	-108.75	-33.75	-138.75	-168.75	-150
1699	-296.25	-262.5	-105	-112.5	-33.75	-138.75	-165	-142.5
1700	-266.25	-240	-112.5	-112.5	-33.75	-135	-157.5	-135
1701	-240	-236.25	-123.75	-116.25	-30	-131.25	-153.75	-131.25
1702	-240	-251.25	-142.5	-123.75	-37.5	-135	-157.5	-127.5
1703	-258.75	-277.5	-161.25	-138.75	-48.75	-142.5	-165	-138.75
1704	-262.5	-296.25	-176.25	-153.75	-60	-153.75	-180	-153.75
1705	-243.75	-288.75	-172.5	-153.75	-60	-153.75	-176.25	-150
1706	-243.75	-288.75	-168.75	-153.75	-56.25	-150	-172.5	-146.25
1707	-258.75	-296.25	-172.5	-161.25	-63.75	-157.5	-176.25	-150
1708	-277.5	-307.5	-180	-168.75	-71.25	-165	-183.75	-153.75
1709	-281.25	-311.25	-183.75	-168.75	-71.25	-161.25	-183.75	-153.75
1710	-255	-311.25	-198.75	-180	-82.5	-172.5	-195	-161.25
1711	-240	-315	-206.25	-191.25	-97.5	-191.25	-206.25	-172.5
1712	-266.25	-322.5	-198.75	-191.25	-97.5	-191.25	-206.25	-172.5
1713	-296.25	-330	-195	-187.5	-93.75	-183.75	-202.5	-168.75
1714	-296.25	-330	-191.25	-187.5	-90	-180	-198.75	-165
1715	-300	-341.25	-187.5	-187.5	-93.75	-183.75	-202.5	-172.5
1716	-307.5	-356.25	-183.75	-187.5	-90	-183.75	-206.25	-172.5
1717	-303.75	-360	-180	-187.5	-90	-183.75	-206.25	-176.25
1718	-300	-356.25	-176.25	-187.5	-90	-183.75	-206.25	-180
1719	-303.75	-352.5	-176.25	-187.5	-93.75	-183.75	-206.25	-180
1720	-315	-356.25	-176.25	-187.5	-93.75	-187.5	-210	-183.75
1721	-315	-356.25	-172.5	-187.5	-97.5	-195	-213.75	-187.5
1722	-322.5	-348.75	-172.5	-183.75	-97.5	-191.25	-213.75	-183.75
1723	-318.75	-345	-176.25	-183.75	-97.5	-191.25	-210	-180
1724	-318.75	-360	-180	-191.25	-105	-198.75	-217.5	-187.5
1725	-337.5	-386.25	-183.75	-202.5	-112.5	-210	-232.5	-202.5
1726	-341.25	-393.75	-187.5	-206.25	-116.25	-213.75	-236.25	-202.5
1727	-345	-397.5	-187.5	-210	-120	-213.75	-236.25	-202.5
1728	-352.5	-412.5	-191.25	-217.5	-127.5	-221.25	-243.75	-213.75
1729	-356.25	-420	-191.25	-221.25	-131.25	-225	-247.5	-221.25
1730	-363.75	-427.5	-187.5	-221.25	-135	-228.75	-251.25	-221.25
1731	-371.25	-423.75	-183.75	-217.5	-131.25	-225	-247.5	-221.25
1732	-367.5	-420	-187.5	-217.5	-131.25	-221.25	-247.5	-217.5
1733	-348.75	-405	-191.25	-210	-127.5	-217.5	-243.75	-213.75
1734	-341.25	-390	-187.5	-206.25	-123.75	-217.5	-243.75	-213.75
1735	-341.25	-393.75	-191.25	-213.75	-127.5	-225	-247.5	-217.5
1736	-337.5	-401.25	-198.75	-221.25	-135	-228.75	-251.25	-221.25
1737	-345	-408.75	-198.75	-221.25	-135	-228.75	-251.25	-221.25
1738	-345	-412.5	-198.75	-221.25	-135	-228.75	-251.25	-221.25
1739	-360	-420	-195	-221.25	-135	-225	-247.5	-217.5
1740	-405	-435	-187.5	-217.5	-127.5	-217.5	-240	-213.75
1741	-416.25	-435	-183.75	-213.75	-127.5	-213.75	-236.25	-213.75
1742	-375	-423.75	-195	-225	-135	-225	-247.5	-225
1743	-345	-416.25	-195	-225	-138.75	-225	-251.25	-232.5
1744	-337.5	-412.5	-195	-221.25	-135	-225	-247.5	-225
1745	-326.25	-393.75	-187.5	-210	-127.5	-217.5	-240	-213.75
1746	-330	-386.25	-180	-198.75	-120	-213.75	-232.5	-206.25
1747	-337.5	-405	-195	-210	-127.5	-221.25	-240	-213.75
1748	-356.25	-427.5	-202.5	-217.5	-131.25	-225	-247.5	-221.25
1749	-382.5	-435	-198.75	-221.25	-135	-225	-247.5	-225
1750	-401.25	-450	-198.75	-221.25	-135	-225	-243.75	-225
1751	-393.75	-465	-202.5	-225	-138.75	-225	-247.5	-225
1752	-367.5	-446.25	-191.25	-213.75	-131.25	-221.25	-243.75	-217.5
1753	-348.75	-435	-172.5	-198.75	-123.75	-225	-251.25	-225
1754	-341.25	-450	-150	-180	-123.75	-232.5	-270	-247.5
1755	-337.5	-457.5	-108.75	-142.5	-116.25	-243.75	-285	-270
1756	-345	-468.75	-52.5	-97.5	-112.5	-262.5	-307.5	-296.25
1757	-337.5	-480	-11.25	-63.75	-116.25	-285	-341.25	-333.75
1758	-322.5	-487.5	26.25	-33.75	-123.75	-311.25	-371.25	-360
1759	-345	-502.5	71.25	15	-101.25	-303.75	-367.5	-348.75
1760	-341.25	-480	108.75	78.75	-52.5	-270	-333.75	-322.5
1761	-292.5	-412.5	153.75	161.25	15	-213.75	-288.75	-281.25
1762	-247.5	-356.25	183.75	232.5	75	-161.25	-240	-240
1763	-210	-315	198.75	285	135	-105	-183.75	-191.25
1764	-150	-251.25	206.25	330	191.25	-41.25	-120	-131.25
1765	-97.5	-176.25	213.75	375	255	37.5	-41.25	-56.25
1766	-45	-82.5	217.5	442.5	348.75	146.25	67.5	52.5
1767	18.75	30	195	495	446.25	262.5	191.25	168.75
1768	86.25	153.75	157.5	521.25	532.5	378.75	315	288.75
1769	150	292.5	90	521.25	622.5	513.75	465	435
1770	202.5	453.75	41.25	547.5	742.5	678.75	633.75	600
1771	225	630	33.75	603.75	881.25	851.25	813.75	768.75
1772	255	836.25	-30	585	975	1016.25	1001.25	960
1773	315	1076.25	-165	495	1042.5	1181.25	1211.25	1181.25
1774	345	1226.25	-300	386.25	1091.25	1327.5	1387.5	1365
1775	352.5	1290	-442.5	225	1102.5	1436.25	1522.5	1496.25
1776	345	1350	-555	71.25	1117.5	1530	1635	1597.5
1777	292.5	1342.5	-562.5	52.5	1181.25	1623.75	1706.25	1631.25
1778	210	1256.25	-532.5	75	1245	1672.5	1721.25	1601.25
1779	135	1188.75	-547.5	26.25	1252.5	1676.25	1698.75	1556.25
1780	63.75	1113.75	-592.5	-86.25	1177.5	1597.5	1608.75	1462.5
1781	-37.5	952.5	-615	-202.5	1027.5	1402.5	1410	1278.75
1782	-168.75	738.75	-573.75	-277.5	840	1140	1140	1038.75
1783	-277.5	532.5	-547.5	-382.5	592.5	828.75	847.5	791.25
1784	-352.5	345	-577.5	-566.25	266.25	472.5	532.5	543.75
1785	-412.5	180	-618.75	-757.5	-48.75	146.25	247.5	322.5
1786	-465	30	-618.75	-836.25	-225	-60	48.75	150
1787	-487.5	-108.75	-581.25	-802.5	-262.5	-150	-75	11.25
1788	-506.25	-217.5	-562.5	-750	-251.25	-183.75	-142.5	-82.5
1789	-521.25	-273.75	-562.5	-693.75	-221.25	-176.25	-153.75	-112.5
1790	-498.75	-273.75	-540	-618.75	-172.5	-142.5	-138.75	-105
1791	-453.75	-262.5	-510	-551.25	-146.25	-127.5	-123.75	-97.5
1792	-423.75	-270	-476.25	-510	-150	-135	-127.5	-101.25
1793	-405	-273.75	-431.25	-450	-135	-131.25	-123.75	-97.5
1794	-375	-266.25	-397.5	-390	-108.75	-127.5	-120	-93.75
1795	-341.25	-243.75	-363.75	-326.25	-75	-105	-105	-82.5
1796	-326.25	-228.75	-326.25	-262.5	-30	-75	-82.5	-63.75
1797	-303.75	-232.5	-292.5	-213.75	-3.75	-60	-78.75	-60
1798	-273.75	-232.5	-255	-172.5	18.75	-52.5	-75	-63.75
1799	-266.25	-236.25	-217.5	-138.75	37.5	-45	-71.25	-63.75
1800	-281.25	-258.75	-202.5	-131.25	37.5	-52.5	-82.5	-75
1801	-300	-277.5	-183.75	-116.25	37.5	-52.5	-86.25	-82.5
1802	-311.25	-288.75	-168.75	-105	41.25	-56.25	-90	-90
1803	-300	-300	-165	-108.75	30	-71.25	-108.75	-101.25
1804	-288.75	-296.25	-161.25	-105	22.5	-86.25	-120	-116.25
1805	-296.25	-300	-153.75	-101.25	18.75	-93.75	-131.25	-120
1806	-277.5	-281.25	-146.25	-90	18.75	-93.75	-127.5	-116.25
1807	-255	-273.75	-146.25	-93.75	15	-97.5	-127.5	-116.25
1808	-273.75	-307.5	-157.5	-105	3.75	-108.75	-138.75	-131.25
1809	-277.5	-315	-157.5	-108.75	-3.75	-116.25	-150	-135
1810	-236.25	-288.75	-146.25	-101.25	0	-116.25	-150	-131.25
1811	-232.5	-285	-142.5	-97.5	0	-112.5	-146.25	-127.5
1812	-277.5	-296.25	-131.25	-90	3.75	-108.75	-142.5	-120
1813	-303.75	-311.25	-123.75	-86.25	7.5	-101.25	-138.75	-123.75
1814	-270	-315	-135	-97.5	-3.75	-108.75	-146.25	-135
1815	-243.75	-315	-146.25	-101.25	-11.25	-116.25	-150	-142.5
1816	-240	-300	-138.75	-93.75	-7.5	-112.5	-150	-138.75
1817	-213.75	-262.5	-123.75	-75	15	-101.25	-135	-123.75
1818	-225	-266.25	-120	-71.25	15	-101.25	-135	-123.75
1819	-243.75	-285	-127.5	-78.75	3.75	-112.5	-142.5	-127.5
1820	-213.75	-273.75	-127.5	-78.75	3.75	-112.5	-142.5	-123.75
1821	-206.25	-273.75	-135	-82.5	0	-112.5	-146.25	-131.25
1822	-213.75	-277.5	-131.25	-82.5	0	-112.5	-146.25	-127.5
1823	-232.5	-270	-120	-71.25	15	-97.5	-131.25	-116.25
1824	-285	-288.75	-112.5	-60	22.5	-90	-123.75	-108.75
1825	-262.5	-303.75	-120	-75	11.25	-97.5	-135	-120
1826	-228.75	-311.25	-138.75	-93.75	-7.5	-116.25	-150	-135
1827	-232.5	-300	-131.25	-82.5	0	-112.5	-146.25	-131.25
1828	-217.5	-273.75	-120	-71.25	7.5	-108.75	-142.5	-123.75
1829	-206.25	-258.75	-120	-60	15	-97.5	-131.25	-112.5
1830	-195	-243.75	-116.25	-52.5	22.5	-90	-123.75	-108.75
1831	-195	-247.5	-120	-48.75	26.25	-86.25	-120	-108.75
1832	-187.5	-251.25	-123.75	-56.25	22.5	-86.25	-116.25	-108.75
1833	-180	-247.5	-127.5	-56.25	22.5	-82.5	-116.25	-108.75
1834	-168.75	-236.25	-120	-48.75	30	-78.75	-112.5	-101.25
1835	-168.75	-236.25	-120	-45	33.75	-75	-112.5	-101.25
1836	-198.75	-255	-120	-45	37.5	-71.25	-108.75	-97.5
1837	-195	-247.5	-116.25	-41.25	45	-60	-97.5	-90
1838	-153.75	-228.75	-120	-45	41.25	-67.5	-105	-97.5
1839	-135	-213.75	-116.25	-37.5	41.25	-71.25	-108.75	-93.75
1840	-153.75	-213.75	-108.75	-30	52.5	-63.75	-101.25	-86.25
1841	-153.75	-202.5	-101.25	-18.75	60	-56.25	-90	-78.75
1842	-153.75	-198.75	-101.25	-11.25	67.5	-45	-82.5	-71.25
1843	-150	-206.25	-108.75	-15	63.75	-48.75	-82.5	-75
1844	-142.5	-210	-112.5	-18.75	60	-48.75	-90	-78.75
1845	-135	-206.25	-112.5	-18.75	63.75	-41.25	-82.5	-75
1846	-138.75	-206.25	-112.5	-15	67.5	-41.25	-82.5	-75
1847	-157.5	-217.5	-116.25	-15	63.75	-45	-86.25	-75
1848	-157.5	-217.5	-112.5	-15	67.5	-41.25	-82.5	-75
1849	-142.5	-213.75	-112.5	-18.75	67.5	-41.25	-82.5	-75
1850	-146.25	-213.75	-116.25	-15	67.5	-41.25	-82.5	-78.75
1851	-131.25	-187.5	-105	0	82.5	-26.25	-67.5	-60
1852	-120	-176.25	-105	3.75	86.25	-22.5	-63.75	-56.25
1853	-116.25	-176.25	-108.75	7.5	86.25	-26.25	-63.75	-56.25
1854	-108.75	-165	-101.25	22.5	101.25	-11.25	-52.5	-45
1855	-108.75	-176.25	-112.5	15	93.75	-18.75	-56.25	-48.75
1856	-120	-187.5	-116.25	7.5	90	-18.75	-60	-52.5
1857	-101.25	-168.75	-112.5	15	93.75	-15	-56.25	-48.75
1858	-82.5	-153.75	-108.75	18.75	101.25	-11.25	-52.5	-45
1859	-97.5	-165	-108.75	22.5	101.25	-7.5	-48.75	-41.25
1860	-153.75	-183.75	-105	26.25	105	0	-41.25	-33.75
1861	-180	-180	-90	41.25	120	15	-30	-18.75
1862	-93.75	-150	-93.75	37.5	120	15	-30	-26.25
1863	-30	-138.75	-105	30	108.75	3.75	-41.25	-37.5
1864	-71.25	-165	-108.75	26.25	108.75	-3.75	-41.25	-37.5
1865	-105	-168.75	-105	37.5	116.25	3.75	-37.5	-30
1866	-101.25	-157.5	-112.5	37.5	116.25	3.75	-37.5	-30
1867	-82.5	-150	-112.5	41.25	120	7.5	-30	-26.25
1868	-41.25	-131.25	-112.5	41.25	123.75	15	-22.5	-18.75
1869	-22.5	-120	-112.5	45	123.75	15	-22.5	-15
1870	-26.25	-112.5	-101.25	56.25	135	30	-11.25	-3.75
1871	-41.25	-120	-97.5	60	142.5	33.75	-7.5	0
1872	-52.5	-131.25	-101.25	56.25	142.5	33.75	-3.75	-3.75
1873	-52.5	-127.5	-101.25	56.25	142.5	41.25	0	0
1874	-52.5	-120	-97.5	63.75	150	45	3.75	7.5
1875	-56.25	-112.5	-93.75	71.25	150	45	7.5	11.25
1876	-56.25	-108.75	-86.25	78.75	161.25	52.5	7.5	15
1877	-30	-97.5	-90	78.75	161.25	48.75	7.5	15
1878	-7.5	-78.75	-97.5	78.75	157.5	48.75	11.25	18.75
1879	-11.25	-78.75	-101.25	78.75	157.5	48.75	15	18.75
1880	0	-78.75	-105	75	153.75	45	11.25	18.75
1881	-7.5	-86.25	-108.75	71.25	153.75	48.75	11.25	22.5
1882	-18.75	-93.75	-112.5	67.5	150	48.75	15	18.75
1883	-18.75	-97.5	-108.75	67.5	150	52.5	18.75	22.5
1884	-15	-101.25	-105	71.25	150	48.75	11.25	18.75
1885	0	-93.75	-101.25	71.25	153.75	52.5	18.75	26.25
1886	26.25	-63.75	-90	86.25	168.75	71.25	37.5	45
1887	18.75	-60	-90	86.25	168.75	71.25	37.5	45
1888	-18.75	-86.25	-97.5	82.5	157.5	63.75	30	37.5
1889	0	-63.75	-93.75	90	165	67.5	37.5	45
1890	41.25	-18.75	-86.25	101.25	180	82.5	52.5	63.75
1891	45	-26.25	-90	97.5	172.5	78.75	48.75	60
1892	37.5	-56.25	-105	78.75	153.75	60	30	48.75
1893	45	-52.5	-105	78.75	153.75	60	30	48.75
1894	37.5	-45	-101.25	78.75	157.5	60	30	52.5
1895	22.5	-56.25	-105	71.25	142.5	52.5	22.5	45
1896	41.25	-48.75	-101.25	71.25	146.25	56.25	30	48.75
1897	52.5	-37.5	-93.75	78.75	153.75	67.5	41.25	52.5
1898	48.75	-33.75	-93.75	75	150	67.5	41.25	56.25
1899	41.25	-37.5	-97.5	71.25	146.25	63.75	37.5	52.5
1900	45	-33.75	-97.5	71.25	146.25	63.75	37.5	48.75
1901	67.5	-7.5	-86.25	82.5	153.75	71.25	48.75	63.75
1902	71.25	7.5	-82.5	93.75	161.25	75	52.5	71.25
1903	41.25	-7.5	-86.25	86.25	153.75	67.5	48.75	67.5
1904	37.5	-15	-86.25	82.5	150	67.5	48.75	71.25
1905	56.25	-15	-82.5	82.5	150	67.5	45	67.5
1906	67.5	-22.5	-90	67.5	135	52.5	33.75	56.25
1907	67.5	-26.25	-90	63.75	131.25	52.5	26.25	52.5
1908	56.25	-33.75	-90	56.25	120	37.5	15	45
1909	48.75	-41.25	-82.5	56.25	116.25	33.75	11.25	41.25
1910	48.75	-37.5	-82.5	52.5	116.25	30	7.5	37.5
1911	48.75	-33.75	-78.75	56.25	116.25	33.75	11.25	33.75
1912	45	-41.25	-78.75	56.25	112.5	33.75	11.25	30
1913	37.5	-33.75	-71.25	60	116.25	37.5	15	37.5
1914	30	-18.75	-63.75	71.25	123.75	37.5	15	41.25
1915	45	-11.25	-60	67.5	120	30	7.5	33.75
1916	45	-26.25	-60	60	112.5	22.5	0	26.25
1917	33.75	-52.5	-71.25	45	97.5	7.5	-15	15
1918	11.25	-67.5	-71.25	45	93.75	3.75	-22.5	7.5
1919	0	-63.75	-56.25	52.5	101.25	7.5	-15	11.25
1920	-7.5	-78.75	-56.25	45	93.75	0	-22.5	0
1921	-3.75	-93.75	-56.25	33.75	82.5	-11.25	-37.5	-15
1922	11.25	-67.5	-45	45	90	-3.75	-33.75	-7.5
1923	7.5	-56.25	-30	60	101.25	3.75	-22.5	0
1924	0	-56.25	-26.25	60	101.25	0	-30	-7.5
1925	3.75	-48.75	-22.5	63.75	101.25	-3.75	-33.75	-11.25
1926	0	-48.75	-18.75	63.75	101.25	-7.5	-37.5	-11.25
1927	-18.75	-67.5	-26.25	56.25	90	-15	-48.75	-18.75
1928	-30	-78.75	-30	48.75	86.25	-18.75	-52.5	-26.25
1929	-15	-78.75	-33.75	37.5	75	-30	-60	-33.75
1930	-15	-90	-37.5	33.75	71.25	-37.5	-71.25	-41.25
1931	-45	-120	-41.25	26.25	63.75	-45	-78.75	-52.5
1932	-56.25	-135	-41.25	15	52.5	-48.75	-82.5	-60
1933	-45	-120	-33.75	18.75	56.25	-48.75	-86.25	-60
1934	-30	-97.5	-22.5	26.25	63.75	-45	-82.5	-56.25
1935	-37.5	-97.5	-22.5	26.25	60	-48.75	-86.25	-63.75
1936	-63.75	-116.25	-18.75	22.5	60	-48.75	-90	-63.75
1937	-60	-108.75	-18.75	30	63.75	-45	-82.5	-60
1938	-48.75	-101.25	-18.75	30	67.5	-45	-82.5	-60
1939	-37.5	-108.75	-26.25	18.75	56.25	-52.5	-90	-67.5
1940	-45	-120	-30	11.25	45	-60	-93.75	-71.25
1941	-63.75	-123.75	-30	3.75	41.25	-63.75	-97.5	-75
1942	-60	-123.75	-30	3.75	41.25	-63.75	-101.25	-78.75
1943	-82.5	-146.25	-33.75	0	37.5	-71.25	-105	-86.25
1944	-108.75	-165	-33.75	-7.5	33.75	-71.25	-108.75	-86.25
1945	-112.5	-157.5	-30	-7.5	33.75	-71.25	-108.75	-90
1946	-101.25	-150	-26.25	-7.5	37.5	-71.25	-108.75	-90
1947	-75	-138.75	-30	-11.25	30	-78.75	-116.25	-97.5
1948	-67.5	-131.25	-26.25	-11.25	30	-75	-112.5	-93.75
1949	-105	-135	-22.5	0	41.25	-67.5	-105	-90
1950	-131.25	-138.75	-18.75	3.75	41.25	-71.25	-105	-86.25
1951	-101.25	-150	-37.5	-15	26.25	-86.25	-123.75	-97.5
1952	-67.5	-150	-48.75	-30	11.25	-101.25	-135	-105
1953	-63.75	-135	-41.25	-26.25	15	-93.75	-127.5	-101.25
1954	-78.75	-135	-37.5	-22.5	18.75	-90	-123.75	-101.25
1955	-101.25	-153.75	-45	-30	15	-93.75	-127.5	-108.75
1956	-116.25	-168.75	-45	-37.5	7.5	-90	-127.5	-108.75
1957	-112.5	-168.75	-45	-37.5	7.5	-93.75	-131.25	-112.5
1958	-108.75	-168.75	-41.25	-37.5	7.5	-97.5	-131.25	-112.5
1959	-105	-161.25	-37.5	-37.5	7.5	-93.75	-131.25	-108.75
1960	-112.5	-168.75	-41.25	-37.5	7.5	-97.5	-131.25	-112.5
1961	-120	-168.75	-37.5	-33.75	11.25	-93.75	-131.25	-112.5
1962	-101.25	-146.25	-33.75	-26.25	11.25	-93.75	-127.5	-108.75
1963	-86.25	-138.75	-41.25	-30	15	-93.75	-127.5	-108.75
1964	-105	-161.25	-45	-37.5	7.5	-97.5	-131.25	-112.5
1965	-123.75	-183.75	-52.5	-45	3.75	-105	-138.75	-116.25
1966	-116.25	-180	-52.5	-45	0	-105	-138.75	-120
1967	-93.75	-161.25	-48.75	-41.25	3.75	-101.25	-135	-116.25
1968	-93.75	-157.5	-45	-37.5	7.5	-93.75	-131.25	-112.5
1969	-116.25	-165	-45	-37.5	7.5	-93.75	-131.25	-112.5
1970	-127.5	-168.75	-41.25	-37.5	11.25	-93.75	-131.25	-112.5
1971	-108.75	-165	-48.75	-41.25	3.75	-97.5	-135	-120
1972	-78.75	-146.25	-48.75	-37.5	3.75	-101.25	-138.75	-123.75
1973	-112.5	-131.25	-26.25	-15	26.25	-82.5	-120	-101.25
1974	-138.75	-127.5	-18.75	3.75	41.25	-71.25	-108.75	-82.5
1975	-93.75	-142.5	-45	-22.5	15	-93.75	-131.25	-105
1976	-78.75	-157.5	-60	-37.5	3.75	-101.25	-138.75	-116.25
1977	-82.5	-146.25	-48.75	-26.25	18.75	-82.5	-120	-105
1978	-86.25	-138.75	-41.25	-22.5	22.5	-78.75	-120	-101.25
1979	-93.75	-142.5	-41.25	-22.5	26.25	-78.75	-120	-101.25
1980	-90	-146.25	-41.25	-26.25	22.5	-82.5	-120	-101.25
1981	-86.25	-150	-41.25	-26.25	22.5	-78.75	-120	-105
1982	-86.25	-142.5	-33.75	-18.75	26.25	-75	-116.25	-101.25
1983	-90	-138.75	-33.75	-18.75	26.25	-75	-116.25	-101.25
1984	-93.75	-138.75	-33.75	-18.75	30	-75	-112.5	-101.25
1985	-97.5	-131.25	-30	-7.5	37.5	-67.5	-105	-97.5
1986	-86.25	-127.5	-37.5	-11.25	30	-71.25	-108.75	-97.5
1987	-78.75	-135	-48.75	-18.75	22.5	-86.25	-120	-105
1988	-75	-131.25	-45	-18.75	26.25	-82.5	-120	-101.25
1989	-67.5	-120	-41.25	-15	33.75	-71.25	-112.5	-93.75
1990	-63.75	-120	-33.75	-11.25	41.25	-63.75	-105	-86.25
1991	-82.5	-142.5	-41.25	-15	33.75	-71.25	-108.75	-93.75
1992	-93.75	-153.75	-48.75	-22.5	26.25	-75	-116.25	-101.25
1993	-97.5	-150	-45	-22.5	30	-75	-120	-101.25
1994	-101.25	-138.75	-33.75	-15	37.5	-63.75	-108.75	-93.75
1995	-82.5	-127.5	-37.5	-11.25	37.5	-63.75	-105	-93.75
1996	-82.5	-135	-41.25	-15	33.75	-71.25	-112.5	-97.5
1997	-108.75	-138.75	-41.25	-7.5	37.5	-71.25	-112.5	-93.75
1998	-71.25	-108.75	-37.5	0	45	-63.75	-105	-86.25
1999	-26.25	-82.5	-33.75	0	48.75	-56.25	-97.5	-82.5
2000	-52.5	-101.25	-37.5	-3.75	45	-60	-101.25	-86.25
2001	-78.75	-120	-45	-7.5	37.5	-67.5	-105	-90
2002	-63.75	-112.5	-41.25	-7.5	37.5	-67.5	-105	-90
2003	-60	-120	-48.75	-15	33.75	-71.25	-108.75	-93.75
2004	-63.75	-135	-52.5	-22.5	26.25	-75	-112.5	-97.5
2005	-60	-131.25	-48.75	-22.5	30	-71.25	-112.5	-97.5
2006	-67.5	-127.5	-37.5	-15	37.5	-60	-101.25	-90
2007	-82.5	-135	-41.25	-18.75	37.5	-60	-101.25	-90
2008	-78.75	-127.5	-41.25	-18.75	33.75	-63.75	-105	-90
2009	-67.5	-108.75	-37.5	-11.25	41.25	-60	-97.5	-86.25
2010	-67.5	-105	-37.5	-7.5	45	-56.25	-97.5	-82.5
2011	-78.75	-120	-48.75	-15	33.75	-71.25	-108.75	-90
2012	-71.25	-116.25	-48.75	-18.75	33.75	-71.25	-108.75	-90
2013	-45	-101.25	-48.75	-22.5	30	-71.25	-108.75	-90
2014	-30	-97.5	-48.75	-22.5	30	-71.25	-105	-86.25
2015	-37.5	-101.25	-48.75	-18.75	33.75	-63.75	-97.5	-86.25
2016	-71.25	-123.75	-52.5	-26.25	33.75	-60	-101.25	-86.25
2017	-112.5	-157.5	-63.75	-37.5	22.5	-67.5	-112.5	-97.5
2018	-90	-138.75	-52.5	-30	30	-63.75	-105	-90
2019	-41.25	-101.25	-45	-22.5	37.5	-60	-97.5	-86.25
2020	-48.75	-101.25	-45	-18.75	41.25	-52.5	-90	-78.75
2021	-52.5	-97.5	-41.25	-15	41.25	-56.25	-93.75	-78.75
2022	-56.25	-93.75	-41.25	-11.25	41.25	-56.25	-97.5	-75
2023	-75	-112.5	-48.75	-18.75	37.5	-60	-105	-82.5
2024	-78.75	-127.5	-60	-30	33.75	-63.75	-105	-82.5
2025	-63.75	-131.25	-63.75	-33.75	26.25	-63.75	-101.25	-82.5
2026	-60	-123.75	-56.25	-30	33.75	-60	-101.25	-78.75
2027	-71.25	-127.5	-60	-33.75	30	-63.75	-105	-82.5
2028	-90	-142.5	-63.75	-41.25	22.5	-67.5	-112.5	-86.25
2029	-82.5	-127.5	-52.5	-33.75	30	-63.75	-105	-82.5
2030	-45	-97.5	-48.75	-26.25	33.75	-56.25	-97.5	-78.75
2031	-30	-97.5	-52.5	-30	30	-60	-105	-82.5
2032	-52.5	-116.25	-60	-41.25	18.75	-71.25	-112.5	-90
2033	-52.5	-105	-60	-37.5	26.25	-67.5	-108.75	-82.5
2034	-30	-93.75	-67.5	-41.25	22.5	-71.25	-112.5	-86.25
2035	-52.5	-123.75	-78.75	-52.5	7.5	-86.25	-123.75	-101.25
2036	-97.5	-146.25	-75	-52.5	7.5	-82.5	-123.75	-97.5
2037	-97.5	-123.75	-60	-37.5	26.25	-63.75	-105	-82.5
2038	-45	-90	-52.5	-33.75	33.75	-60	-97.5	-75
2039	-30	-105	-63.75	-45	18.75	-75	-112.5	-86.25
2040	-48.75	-123.75	-67.5	-48.75	15	-82.5	-120	-90
2041	-67.5	-135	-67.5	-56.25	7.5	-86.25	-123.75	-97.5
2042	-71.25	-142.5	-67.5	-60	3.75	-90	-123.75	-97.5
2043	-63.75	-135	-63.75	-56.25	7.5	-82.5	-116.25	-97.5
2044	-63.75	-123.75	-60	-52.5	11.25	-75	-108.75	-90
2045	-60	-108.75	-60	-45	15	-71.25	-105	-86.25
2046	-56.25	-105	-56.25	-41.25	18.75	-71.25	-105	-82.5
2047	-60	-108.75	-60	-48.75	15	-71.25	-105	-82.5
2048	-63.75	-123.75	-67.5	-56.25	11.25	-78.75	-108.75	-86.25
2049	-75	-150	-78.75	-67.5	-3.75	-93.75	-127.5	-101.25
2050	-90	-153.75	-75	-71.25	-3.75	-90	-123.75	-97.5
2051	-71.25	-123.75	-63.75	-56.25	7.5	-75	-108.75	-82.5
2052	-48.75	-116.25	-63.75	-60	7.5	-78.75	-112.5	-90
2053	-75	-142.5	-63.75	-67.5	0	-86.25	-120	-93.75
2054	-86.25	-142.5	-63.75	-63.75	3.75	-82.5	-116.25	-90
2055	-60	-123.75	-60	-60	3.75	-78.75	-112.5	-90
2056	-37.5	-116.25	-63.75	-63.75	-3.75	-86.25	-120	-97.5
2057	-52.5	-112.5	-60	-60	3.75	-82.5	-116.25	-93.75
2058	-86.25	-120	-60	-52.5	7.5	-78.75	-112.5	-86.25
2059	-105	-138.75	-63.75	-56.25	0	-86.25	-116.25	-90
2060	-86.25	-135	-71.25	-63.75	-3.75	-90	-120	-93.75
2061	-56.25	-131.25	-78.75	-71.25	-7.5	-97.5	-127.5	-97.5
2062	-60	-142.5	-82.5	-82.5	-15	-108.75	-138.75	-105
2063	-71.25	-146.25	-78.75	-78.75	-15	-105	-135	-101.25
2064	-56.25	-138.75	-78.75	-82.5	-18.75	-105	-135	-101.25
2065	-75	-142.5	-75	-78.75	-15	-97.5	-127.5	-101.25
2066	-112.5	-146.25	-67.5	-71.25	-3.75	-86.25	-116.25	-93.75
2067	-93.75	-138.75	-63.75	-67.5	0	-82.5	-112.5	-93.75
2068	-48.75	-127.5	-75	-78.75	-11.25	-93.75	-123.75	-101.25
2069	-41.25	-120	-75	-75	-11.25	-93.75	-123.75	-97.5
2070	-48.75	-120	-78.75	-67.5	-11.25	-93.75	-123.75	-97.5
2071	-52.5	-123.75	-75	-67.5	-7.5	-93.75	-123.75	-97.5
2072	-56.25	-138.75	-82.5	-75	-15	-101.25	-131.25	-101.25
2073	-63.75	-138.75	-86.25	-78.75	-15	-101.25	-131.25	-105
2074	-93.75	-138.75	-75	-71.25	-7.5	-90	-123.75	-97.5
2075	-97.5	-153.75	-75	-75	-11.25	-93.75	-123.75	-101.25
2076	-63.75	-153.75	-86.25	-86.25	-22.5	-105	-135	-108.75
2077	-45	-138.75	-82.5	-86.25	-18.75	-101.25	-135	-108.75
2078	-48.75	-127.5	-67.5	-75	-11.25	-93.75	-123.75	-101.25
2079	-52.5	-123.75	-63.75	-67.5	-7.5	-90	-120	-101.25
2080	-67.5	-131.25	-67.5	-71.25	-11.25	-93.75	-123.75	-105
2081	-93.75	-146.25	-71.25	-75	-15	-101.25	-131.25	-105
2082	-101.25	-146.25	-71.25	-75	-15	-101.25	-131.25	-105
2083	-75	-142.5	-75	-75	-18.75	-105	-135	-108.75
2084	-67.5	-146.25	-86.25	-86.25	-26.25	-108.75	-142.5	-116.25
2085	-75	-135	-75	-78.75	-18.75	-101.25	-131.25	-105
2086	-63.75	-123.75	-71.25	-75	-15	-93.75	-123.75	-101.25
2087	-45	-127.5	-75	-78.75	-18.75	-97.5	-127.5	-105
2088	-63.75	-146.25	-78.75	-86.25	-26.25	-101.25	-131.25	-108.75
2089	-86.25	-153.75	-75	-82.5	-18.75	-97.5	-131.25	-105
2090	-78.75	-142.5	-67.5	-78.75	-15	-93.75	-127.5	-105
2091	-78.75	-146.25	-71.25	-82.5	-18.75	-97.5	-127.5	-105
2092	-86.25	-153.75	-67.5	-78.75	-15	-93.75	-123.75	-101.25
2093	-82.5	-142.5	-67.5	-75	-15	-97.5	-123.75	-101.25
2094	-75	-142.5	-75	-75	-18.75	-105	-131.25	-105
2095	-56.25	-135	-78.75	-82.5	-22.5	-105	-135	-105
2096	-41.25	-116.25	-71.25	-75	-15	-97.5	-127.5	-97.5
2097	-48.75	-105	-60	-63.75	-3.75	-82.5	-112.5	-86.25
2098	-52.5	-105	-56.25	-63.75	-3.75	-82.5	-116.25	-86.25
2099	-45	-108.75	-60	-67.5	-3.75	-86.25	-112.5	-86.25
2100	-67.5	-116.25	-52.5	-63.75	0	-75	-105	-82.5
2101	-105	-116.25	-37.5	-52.5	7.5	-67.5	-101.25	-75
2102	-86.25	-101.25	-33.75	-52.5	7.5	-75	-108.75	-78.75
2103	-56.25	-86.25	-33.75	-52.5	7.5	-75	-108.75	-78.75
2104	-45	-78.75	-30	-48.75	7.5	-75	-105	-78.75
2105	-52.5	-75	-22.5	-33.75	18.75	-67.5	-101.25	-71.25
2106	-52.5	-71.25	-22.5	-33.75	18.75	-63.75	-97.5	-71.25
2107	-41.25	-78.75	-26.25	-37.5	15	-67.5	-97.5	-75
2108	-41.25	-86.25	-18.75	-37.5	15	-71.25	-105	-78.75
2109	-41.25	-82.5	-15	-33.75	18.75	-71.25	-105	-78.75
2110	-33.75	-78.75	-18.75	-30	22.5	-63.75	-97.5	-71.25
2111	-48.75	-90	-18.75	-30	22.5	-63.75	-101.25	-75
2112	-56.25	-97.5	-18.75	-33.75	15	-67.5	-105	-82.5
2113	-71.25	-101.25	-7.5	-30	18.75	-63.75	-97.5	-78.75
2114	-75	-82.5	3.75	-18.75	33.75	-48.75	-82.5	-67.5
2115	-48.75	-60	11.25	-7.5	41.25	-41.25	-78.75	-60
2116	-30	-48.75	7.5	-11.25	37.5	-45	-82.5	-63.75
2117	-26.25	-30	11.25	0	45	-41.25	-75	-56.25
2118	-37.5	-30	0	-3.75	41.25	-41.25	-71.25	-52.5
2119	-41.25	-37.5	-15	-15	37.5	-45	-75	-56.25
2120	-33.75	-41.25	-22.5	-18.75	37.5	-41.25	-71.25	-48.75
2121	-22.5	-45	-37.5	-22.5	37.5	-45	-71.25	-48.75
2122	-7.5	-45	-56.25	-30	30	-45	-75	-48.75
2123	0	-45	-67.5	-37.5	26.25	-48.75	-75	-52.5
2124	0	-48.75	-67.5	-41.25	26.25	-48.75	-71.25	-48.75
2125	0	-52.5	-67.5	-45	22.5	-48.75	-75	-52.5
2126	-3.75	-48.75	-60	-37.5	30	-45	-71.25	-45
2127	-7.5	-48.75	-67.5	-41.25	26.25	-52.5	-75	-48.75
2128	-7.5	-56.25	-75	-52.5	15	-60	-78.75	-52.5
2129	7.5	-52.5	-86.25	-60	7.5	-63.75	-82.5	-56.25
2130	22.5	-45	-90	-60	7.5	-63.75	-82.5	-60
2131	15	-56.25	-93.75	-63.75	3.75	-63.75	-86.25	-60
2132	3.75	-63.75	-90	-67.5	0	-67.5	-90	-60
2133	-11.25	-71.25	-86.25	-71.25	-3.75	-75	-97.5	-67.5
2134	-26.25	-90	-86.25	-75	-7.5	-82.5	-105	-71.25
2135	-37.5	-105	-86.25	-75	-11.25	-86.25	-108.75	-75
2136	-30	-101.25	-75	-71.25	-3.75	-75	-101.25	-71.25
2137	-15	-93.75	-71.25	-71.25	0	-71.25	-93.75	-71.25
2138	-11.25	-78.75	-67.5	-63.75	3.75	-67.5	-90	-67.5
2139	-15	-71.25	-60	-56.25	7.5	-63.75	-86.25	-60
2140	-45	-90	-60	-60	0	-78.75	-97.5	-71.25
2141	-56.25	-90	-60	-56.25	-3.75	-78.75	-97.5	-67.5
2142	-56.25	-90	-63.75	-63.75	-3.75	-78.75	-97.5	-71.25
2143	-60	-105	-71.25	-71.25	-11.25	-82.5	-105	-82.5
2144	-45	-108.75	-75	-78.75	-15	-86.25	-112.5	-86.25
2145	-48.75	-120	-82.5	-90	-30	-101.25	-123.75	-93.75
2146	-67.5	-135	-82.5	-93.75	-33.75	-105	-127.5	-97.5
2147	-56.25	-135	-82.5	-93.75	-33.75	-105	-127.5	-97.5
2148	-52.5	-138.75	-82.5	-97.5	-37.5	-108.75	-135	-101.25
2149	-75	-153.75	-78.75	-97.5	-41.25	-112.5	-135	-108.75
2150	-75	-146.25	-75	-97.5	-37.5	-108.75	-135	-105
2151	-67.5	-127.5	-67.5	-86.25	-26.25	-97.5	-120	-93.75
2152	-71.25	-131.25	-71.25	-90	-33.75	-105	-127.5	-101.25
2153	-67.5	-135	-78.75	-93.75	-41.25	-116.25	-142.5	-108.75
2154	-63.75	-135	-82.5	-93.75	-45	-116.25	-142.5	-108.75
2155	-63.75	-135	-82.5	-93.75	-41.25	-112.5	-138.75	-105
2156	-60	-123.75	-78.75	-86.25	-33.75	-105	-131.25	-97.5
2157	-67.5	-127.5	-78.75	-90	-37.5	-108.75	-135	-101.25
2158	-75	-138.75	-82.5	-93.75	-41.25	-108.75	-135	-105
2159	-60	-146.25	-82.5	-97.5	-37.5	-108.75	-135	-105
2160	-48.75	-153.75	-90	-108.75	-48.75	-120	-146.25	-112.5
2161	-56.25	-150	-86.25	-105	-41.25	-112.5	-138.75	-105
2162	-86.25	-142.5	-71.25	-90	-30	-93.75	-120	-97.5
2163	-97.5	-142.5	-63.75	-82.5	-30	-97.5	-123.75	-97.5
2164	-75	-138.75	-75	-93.75	-41.25	-112.5	-138.75	-108.75
2165	-56.25	-123.75	-71.25	-86.25	-33.75	-105	-131.25	-101.25
2166	-67.5	-123.75	-67.5	-78.75	-26.25	-101.25	-127.5	-97.5
2167	-63.75	-135	-78.75	-86.25	-33.75	-108.75	-131.25	-101.25
2168	-60	-142.5	-82.5	-93.75	-37.5	-112.5	-135	-105
2169	-67.5	-153.75	-86.25	-97.5	-45	-112.5	-138.75	-105
2170	-67.5	-157.5	-86.25	-101.25	-48.75	-116.25	-142.5	-108.75
2171	-75	-157.5	-82.5	-93.75	-41.25	-108.75	-138.75	-105
2172	-90	-168.75	-82.5	-97.5	-45	-116.25	-146.25	-108.75
2173	-67.5	-168.75	-78.75	-97.5	-48.75	-123.75	-157.5	-120
2174	-56.25	-168.75	-56.25	-75	-45	-127.5	-161.25	-127.5
2175	-75	-183.75	-7.5	-33.75	-33.75	-131.25	-168.75	-142.5
2176	-93.75	-213.75	45	11.25	-22.5	-142.5	-191.25	-172.5
2177	-93.75	-240	93.75	52.5	-22.5	-161.25	-221.25	-206.25
2178	-56.25	-228.75	142.5	93.75	-18.75	-176.25	-243.75	-225
2179	-33.75	-206.25	183.75	135	0	-176.25	-247.5	-225
2180	-22.5	-180	221.25	195	37.5	-153.75	-225	-206.25
2181	-3.75	-138.75	258.75	270	97.5	-105	-180	-168.75
2182	30	-82.5	292.5	337.5	157.5	-52.5	-138.75	-131.25
2183	78.75	-37.5	307.5	393.75	213.75	0	-90	-82.5
2184	112.5	0	307.5	431.25	266.25	56.25	-33.75	-30
2185	150	60	318.75	472.5	322.5	127.5	41.25	41.25
2186	217.5	153.75	318.75	528.75	401.25	221.25	138.75	138.75
2187	273.75	270	311.25	603.75	513.75	352.5	273.75	262.5
2188	315	393.75	292.5	652.5	618.75	487.5	412.5	390
2189	408.75	540	225	645	697.5	603.75	540	517.5
2190	513.75	701.25	153.75	645	795	746.25	693.75	667.5
2191	558.75	862.5	127.5	690	915	903.75	858.75	825
2192	558.75	1050	90	701.25	1027.5	1072.5	1046.25	1012.5
2193	577.5	1286.25	-18.75	633.75	1106.25	1245	1263.75	1237.5
2194	622.5	1470	-146.25	543.75	1170	1406.25	1455	1440
2195	660	1541.25	-292.5	386.25	1181.25	1507.5	1582.5	1567.5
2196	648.75	1582.5	-427.5	210	1177.5	1597.5	1691.25	1668.75
2197	555	1556.25	-461.25	157.5	1226.25	1683.75	1766.25	1713.75
2198	465	1492.5	-423.75	187.5	1297.5	1740	1792.5	1698.75
2199	427.5	1470	-412.5	161.25	1323.75	1770	1796.25	1665
2200	348.75	1398.75	-461.25	56.25	1263.75	1706.25	1717.5	1582.5
2201	240	1241.25	-498.75	-67.5	1125	1530	1533.75	1417.5
2202	131.25	1035	-468.75	-150	941.25	1275	1275	1181.25
2203	22.5	821.25	-427.5	-243.75	712.5	978.75	986.25	937.5
2204	-56.25	630	-442.5	-405	405	637.5	682.5	693.75
2205	-127.5	465	-483.75	-588.75	93.75	315	401.25	476.25
2206	-198.75	315	-491.25	-697.5	-105	90	191.25	296.25
2207	-225	176.25	-457.5	-678.75	-165	-15	52.5	150
2208	-225	56.25	-438.75	-630	-168.75	-67.5	-33.75	41.25
2209	-221.25	-3.75	-438.75	-585	-150	-78.75	-63.75	0
2210	-210	-7.5	-423.75	-513.75	-101.25	-41.25	-41.25	3.75
2211	-191.25	-7.5	-393.75	-442.5	-67.5	-15	-15	18.75
2212	-168.75	-18.75	-363.75	-401.25	-71.25	-22.5	-22.5	11.25
2213	-131.25	-18.75	-330	-348.75	-67.5	-30	-26.25	7.5
2214	-101.25	-15	-292.5	-288.75	-45	-22.5	-26.25	7.5
2215	-78.75	0	-255	-225	-7.5	-7.5	-15	22.5
2216	-60	11.25	-221.25	-165	30	15	0	37.5
2217	-60	0	-187.5	-116.25	63.75	37.5	15	45
2218	-63.75	-11.25	-150	-67.5	90	52.5	22.5	45
2219	-37.5	-7.5	-116.25	-33.75	105	60	22.5	41.25
2220	-22.5	-7.5	-86.25	-15	112.5	60	15	30
2221	-52.5	-41.25	-67.5	0	116.25	60	15	26.25
2222	-52.5	-56.25	-56.25	3.75	108.75	48.75	3.75	15
2223	-18.75	-30	-37.5	18.75	116.25	48.75	3.75	15
2224	3.75	-11.25	-30	26.25	116.25	41.25	-3.75	11.25
2225	3.75	-15	-33.75	22.5	105	30	-15	0
2226	3.75	-26.25	-41.25	15	90	11.25	-30	-11.25
2227	0	-45	-48.75	7.5	78.75	-3.75	-45	-26.25
2228	3.75	-52.5	-48.75	7.5	75	0	-37.5	-22.5
2229	3.75	-60	-45	7.5	71.25	-7.5	-48.75	-30
2230	-18.75	-71.25	-41.25	7.5	67.5	-18.75	-56.25	-33.75
2231	-48.75	-75	-30	15	75	-7.5	-45	-26.25
2232	-78.75	-93.75	-22.5	18.75	78.75	0	-41.25	-22.5
2233	-52.5	-101.25	-30	7.5	67.5	-15	-56.25	-37.5
2234	0	-75	-33.75	7.5	63.75	-15	-56.25	-37.5
2235	-3.75	-63.75	-26.25	18.75	67.5	-11.25	-52.5	-33.75
2236	-11.25	-63.75	-18.75	26.25	75	-7.5	-52.5	-30
2237	-7.5	-63.75	-18.75	30	75	-11.25	-52.5	-30
2238	-3.75	-63.75	-26.25	26.25	71.25	-15	-56.25	-33.75
2239	-15	-75	-30	18.75	63.75	-22.5	-63.75	-37.5
2240	-11.25	-71.25	-26.25	18.75	67.5	-15	-56.25	-33.75
2241	11.25	-60	-26.25	22.5	67.5	-11.25	-52.5	-33.75
2242	7.5	-71.25	-37.5	15	63.75	-18.75	-60	-37.5
2243	-11.25	-93.75	-45	11.25	56.25	-26.25	-63.75	-41.25
2244	-15	-108.75	-45	3.75	48.75	-30	-71.25	-52.5
2245	-15	-101.25	-33.75	11.25	56.25	-22.5	-63.75	-48.75
2246	-18.75	-75	-18.75	30	75	-3.75	-45	-30
2247	-33.75	-78.75	-15	33.75	78.75	0	-41.25	-26.25
2248	-3.75	-67.5	-18.75	37.5	78.75	0	-45	-26.25
2249	33.75	-37.5	-18.75	41.25	82.5	3.75	-37.5	-18.75
2250	37.5	-30	-15	48.75	90	3.75	-37.5	-15
2251	37.5	-37.5	-22.5	41.25	82.5	-3.75	-41.25	-22.5
2252	26.25	-52.5	-22.5	41.25	82.5	0	-37.5	-18.75
2253	0	-67.5	-26.25	41.25	82.5	0	-41.25	-18.75
2254	3.75	-63.75	-26.25	41.25	82.5	3.75	-37.5	-18.75
