samplenr,I,II,V1,V2,V3,V4,V5,V6,measurement
0,281.25,146.25,26.25,-3.75,78.75,-30,-33.75,-18.75,49.583333333333336
1,277.5,146.25,26.25,-7.5,71.25,-30,-33.75,-18.75,47.916666666666664
2,251.25,123.75,26.25,-15,63.75,-37.5,-45,-30,37.5
3,243.75,112.5,30,-18.75,63.75,-37.5,-45,-33.75,35.0
4,236.25,112.5,26.25,-22.5,60,-41.25,-48.75,-37.5,31.666666666666668
5,217.5,108.75,30,-22.5,56.25,-48.75,-52.5,-41.25,27.5
6,213.75,105,30,-22.5,56.25,-52.5,-60,-48.75,24.583333333333332
7,228.75,120,33.75,-18.75,56.25,-52.5,-60,-48.75,28.75
8,210,105,26.25,-22.5,48.75,-60,-67.5,-52.5,20.833333333333332
9,195,71.25,11.25,-33.75,37.5,-71.25,-78.75,-63.75,7.5
10,176.25,45,7.5,-45,30,-75,-86.25,-71.25,-2.0833333333333335
11,138.75,26.25,7.5,-45,30,-75,-86.25,-71.25,-8.333333333333334
12,153.75,48.75,15,-41.25,33.75,-71.25,-82.5,-67.5,-1.25
13,195,75,18.75,-37.5,37.5,-67.5,-78.75,-60,9.166666666666666
14,202.5,71.25,18.75,-41.25,33.75,-67.5,-82.5,-63.75,7.916666666666667
15,172.5,37.5,7.5,-52.5,22.5,-78.75,-93.75,-78.75,-7.083333333333333
16,172.5,37.5,7.5,-52.5,22.5,-78.75,-93.75,-78.75,-7.083333333333333
17,183.75,48.75,11.25,-48.75,30,-75,-86.25,-75,-1.25
18,180,48.75,11.25,-45,30,-75,-86.25,-71.25,-0.8333333333333334
19,180,60,18.75,-37.5,37.5,-67.5,-82.5,-67.5,4.583333333333333
20,161.25,45,11.25,-41.25,33.75,-75,-90,-71.25,-2.9166666666666665
21,172.5,48.75,11.25,-41.25,33.75,-75,-86.25,-67.5,-0.4166666666666667
22,187.5,60,11.25,-41.25,33.75,-71.25,-82.5,-67.5,3.3333333333333335
23,168.75,41.25,7.5,-45,30,-78.75,-90,-71.25,-4.166666666666667
24,176.25,45,7.5,-45,30,-75,-86.25,-71.25,-2.0833333333333335
25,180,60,15,-37.5,41.25,-67.5,-78.75,-63.75,5.416666666666667
26,142.5,33.75,11.25,-45,37.5,-71.25,-82.5,-71.25,-5.0
27,127.5,11.25,3.75,-56.25,22.5,-78.75,-90,-78.75,-15.416666666666666
28,153.75,26.25,3.75,-56.25,22.5,-78.75,-90,-78.75,-10.833333333333334
29,157.5,37.5,11.25,-45,33.75,-71.25,-82.5,-71.25,-3.3333333333333335
30,150,52.5,26.25,-30,48.75,-56.25,-71.25,-60,6.666666666666667
31,150,56.25,30,-26.25,52.5,-56.25,-67.5,-52.5,9.583333333333334
32,168.75,60,18.75,-30,45,-63.75,-75,-60,7.083333333333333
33,172.5,48.75,7.5,-41.25,33.75,-75,-86.25,-71.25,-1.25
34,138.75,18.75,-3.75,-52.5,22.5,-86.25,-97.5,-86.25,-16.25
35,138.75,7.5,3.75,-48.75,18.75,-90,-105,-93.75,-18.75
36,187.5,22.5,30,-26.25,30,-86.25,-105,-93.75,-4.583333333333333
37,198.75,15,71.25,11.25,41.25,-97.5,-123.75,-112.5,0.4166666666666667
38,161.25,-26.25,120,48.75,45,-116.25,-150,-146.25,-7.083333333333333
39,146.25,-60,172.5,90,45,-138.75,-176.25,-176.25,-10.833333333333334
40,161.25,-67.5,221.25,127.5,41.25,-157.5,-202.5,-202.5,-8.75
41,172.5,-56.25,262.5,168.75,56.25,-161.25,-213.75,-206.25,2.5
42,191.25,-18.75,303.75,236.25,101.25,-135,-191.25,-183.75,33.75
43,217.5,45,348.75,318.75,165,-86.25,-146.25,-142.5,80.0
44,251.25,90,371.25,390,225,-33.75,-101.25,-101.25,121.25
45,273.75,90,367.5,431.25,273.75,11.25,-56.25,-67.5,147.08333333333334
46,300,138.75,382.5,480,333.75,86.25,15,-7.5,192.08333333333334
47,386.25,262.5,408.75,543.75,416.25,176.25,105,82.5,264.5833333333333
48,495,371.25,412.5,603.75,495,266.25,202.5,176.25,335.8333333333333
49,547.5,431.25,375,637.5,570,363.75,303.75,273.75,389.1666666666667
50,585,532.5,337.5,663.75,660,483.75,427.5,390,453.3333333333333
51,645,663.75,281.25,663.75,746.25,611.25,562.5,525,522.0833333333334
52,686.25,791.25,213.75,663.75,843.75,753.75,716.25,675,593.75
53,705,960,206.25,727.5,986.25,933.75,896.25,840,695.0
54,716.25,1155,165,742.5,1102.5,1102.5,1087.5,1027.5,788.75
55,787.5,1410,48.75,675,1177.5,1275,1297.5,1252.5,880.4166666666666
56,915,1665,-75,588.75,1248.75,1443.75,1503.75,1470,973.3333333333334
57,982.5,1766.25,-213.75,431.25,1263.75,1552.5,1642.5,1605,1003.3333333333334
58,945,1788.75,-352.5,247.5,1256.25,1638.75,1751.25,1710,998.3333333333334
59,843.75,1766.25,-397.5,183.75,1301.25,1728.75,1833.75,1766.25,1002.9166666666666
60,735,1687.5,-371.25,202.5,1368.75,1792.5,1860,1751.25,1002.9166666666666
61,652.5,1601.25,-378.75,161.25,1383.75,1807.5,1848.75,1706.25,975.8333333333334
62,577.5,1500,-435,45,1323.75,1747.5,1773.75,1620,905.8333333333334
63,480,1346.25,-476.25,-90,1185,1578.75,1601.25,1455,786.6666666666666
64,363.75,1162.5,-438.75,-168.75,1016.25,1338.75,1350,1230,650.4166666666666
65,243.75,963.75,-393.75,-247.5,798.75,1050,1065,982.5,495.8333333333333
66,153.75,776.25,-405,-397.5,498.75,708.75,761.25,738.75,315.0
67,93.75,626.25,-431.25,-573.75,183.75,371.25,468.75,513.75,139.16666666666666
68,18.75,476.25,-435,-682.5,-33.75,131.25,247.5,330,5.833333333333333
69,-56.25,296.25,-423.75,-690,-127.5,-7.5,82.5,165,-84.58333333333333
70,-86.25,150,-412.5,-652.5,-146.25,-78.75,-22.5,41.25,-134.16666666666666
71,-60,108.75,-405,-592.5,-116.25,-78.75,-45,-3.75,-132.5
72,0,138.75,-378.75,-502.5,-52.5,-30,-15,15,-91.66666666666667
73,48.75,161.25,-341.25,-427.5,-11.25,0,11.25,33.75,-58.333333333333336
74,67.5,138.75,-318.75,-390,-18.75,-7.5,7.5,26.25,-55.0
75,67.5,105,-281.25,-348.75,-26.25,-22.5,-3.75,11.25,-55.416666666666664
76,60,90,-240,-292.5,-3.75,-18.75,-7.5,7.5,-45.0
77,63.75,97.5,-202.5,-225,33.75,0,3.75,18.75,-23.333333333333332
78,101.25,123.75,-165,-157.5,78.75,30,26.25,33.75,7.916666666666667
79,165,168.75,-123.75,-86.25,127.5,63.75,52.5,52.5,46.666666666666664
80,198.75,187.5,-75,-22.5,168.75,86.25,71.25,67.5,75.83333333333333
81,195,176.25,-33.75,18.75,187.5,93.75,75,67.5,86.66666666666667
82,172.5,146.25,-22.5,18.75,176.25,78.75,56.25,48.75,75.0
83,138.75,97.5,-22.5,15,165,60,37.5,30,57.916666666666664
84,97.5,48.75,-22.5,15,153.75,45,18.75,11.25,40.833333333333336
85,112.5,48.75,-11.25,18.75,150,41.25,15,7.5,42.5
86,161.25,78.75,7.5,30,153.75,45,18.75,11.25,56.25
87,142.5,63.75,11.25,26.25,146.25,33.75,7.5,0,47.916666666666664
88,150,71.25,22.5,33.75,146.25,33.75,7.5,0,51.666666666666664
89,183.75,93.75,30,41.25,146.25,33.75,7.5,-3.75,59.166666666666664
90,180,75,26.25,33.75,138.75,18.75,-7.5,-18.75,49.583333333333336
91,172.5,75,26.25,33.75,135,15,-15,-18.75,47.083333333333336
92,176.25,86.25,30,45,138.75,18.75,-7.5,-15,52.5
93,172.5,67.5,22.5,37.5,127.5,3.75,-18.75,-22.5,43.333333333333336
94,172.5,63.75,18.75,33.75,120,0,-26.25,-30,39.166666666666664
95,165,60,22.5,30,120,-3.75,-30,-33.75,36.666666666666664
96,142.5,37.5,15,26.25,112.5,-15,-45,-41.25,25.833333333333332
97,127.5,15,11.25,22.5,105,-22.5,-45,-45,18.75
98,157.5,26.25,18.75,22.5,105,-18.75,-37.5,-41.25,25.833333333333332
99,180,41.25,26.25,30,112.5,-3.75,-26.25,-33.75,36.25
100,153.75,22.5,18.75,26.25,108.75,-7.5,-30,-45,27.5
101,131.25,26.25,26.25,33.75,116.25,0,-22.5,-37.5,30.416666666666668
102,142.5,52.5,45,52.5,135,15,-7.5,-18.75,46.25
103,180,60,37.5,48.75,127.5,7.5,-18.75,-26.25,46.25
104,180,48.75,22.5,41.25,116.25,-7.5,-30,-37.5,37.083333333333336
105,138.75,7.5,3.75,26.25,101.25,-22.5,-45,-48.75,17.916666666666668
106,123.75,-11.25,0,18.75,93.75,-26.25,-48.75,-52.5,10.833333333333334
107,146.25,26.25,18.75,41.25,116.25,-3.75,-30,-30,31.666666666666668
108,180,56.25,22.5,48.75,123.75,3.75,-22.5,-26.25,42.916666666666664
109,176.25,41.25,18.75,37.5,116.25,-3.75,-30,-33.75,35.833333333333336
110,165,33.75,18.75,37.5,116.25,0,-30,-33.75,34.166666666666664
111,187.5,52.5,22.5,41.25,123.75,7.5,-18.75,-26.25,43.333333333333336
112,176.25,45,30,48.75,127.5,11.25,-15,-22.5,44.583333333333336
113,157.5,22.5,22.5,45,123.75,0,-26.25,-33.75,34.583333333333336
114,150,15,22.5,48.75,127.5,3.75,-22.5,-30,35.0
115,172.5,41.25,22.5,56.25,131.25,11.25,-15,-22.5,44.166666666666664
116,202.5,78.75,33.75,71.25,146.25,22.5,0,-7.5,60.833333333333336
117,198.75,67.5,30,71.25,146.25,22.5,-3.75,-7.5,58.333333333333336
118,187.5,41.25,18.75,60,135,11.25,-15,-18.75,46.666666666666664
119,176.25,37.5,15,60,135,15,-11.25,-18.75,45.416666666666664
120,180,52.5,22.5,71.25,146.25,26.25,0,-7.5,54.583333333333336
121,198.75,56.25,18.75,67.5,146.25,22.5,-3.75,-11.25,55.0
122,198.75,45,15,60,138.75,18.75,-7.5,-15,50.416666666666664
123,195,52.5,18.75,63.75,142.5,26.25,-3.75,-11.25,53.75
124,187.5,56.25,26.25,75,153.75,33.75,7.5,0,60.0
125,165,30,15,67.5,142.5,26.25,-3.75,-11.25,47.916666666666664
126,135,0,3.75,56.25,131.25,11.25,-18.75,-26.25,32.5
127,172.5,41.25,11.25,71.25,146.25,26.25,-3.75,-11.25,50.416666666666664
128,195,63.75,15,82.5,153.75,33.75,3.75,-3.75,60.416666666666664
129,157.5,37.5,11.25,78.75,153.75,30,0,-3.75,51.666666666666664
130,161.25,30,3.75,71.25,146.25,22.5,-3.75,-11.25,46.666666666666664
131,198.75,52.5,7.5,78.75,153.75,33.75,3.75,0,58.75
132,232.5,93.75,26.25,101.25,176.25,56.25,26.25,22.5,81.66666666666667
133,221.25,97.5,33.75,112.5,183.75,67.5,33.75,33.75,87.08333333333333
134,191.25,63.75,26.25,97.5,172.5,60,26.25,22.5,73.33333333333333
135,195,52.5,18.75,90,168.75,52.5,18.75,15,67.91666666666667
136,198.75,52.5,18.75,93.75,172.5,56.25,22.5,15,70.0
137,202.5,63.75,26.25,101.25,180,60,26.25,18.75,75.41666666666667
138,228.75,90,26.25,108.75,187.5,67.5,33.75,26.25,85.41666666666667
139,221.25,90,26.25,116.25,191.25,71.25,41.25,33.75,87.91666666666667
140,195,78.75,26.25,120,195,71.25,41.25,33.75,84.58333333333333
141,202.5,78.75,22.5,120,195,71.25,41.25,33.75,85.0
142,202.5,78.75,22.5,120,195,78.75,45,37.5,86.66666666666667
143,195,60,7.5,112.5,187.5,67.5,37.5,30,77.5
144,217.5,67.5,3.75,108.75,187.5,63.75,30,30,78.75
145,228.75,78.75,11.25,116.25,195,75,41.25,37.5,87.08333333333333
146,232.5,71.25,3.75,108.75,187.5,71.25,37.5,30,82.5
147,195,48.75,3.75,108.75,191.25,75,37.5,30,76.66666666666667
148,183.75,56.25,15,116.25,198.75,82.5,48.75,37.5,82.08333333333333
149,247.5,101.25,22.5,127.5,206.25,90,52.5,45,99.16666666666667
150,270,108.75,18.75,131.25,210,90,56.25,48.75,103.75
151,247.5,105,15,135,210,90,60,52.5,101.66666666666667
152,255,116.25,15,138.75,217.5,97.5,63.75,56.25,106.66666666666667
153,255,116.25,15,142.5,217.5,101.25,67.5,63.75,108.75
154,236.25,105,15,142.5,217.5,101.25,67.5,63.75,105.41666666666667
155,236.25,93.75,7.5,135,213.75,93.75,63.75,60,100.41666666666667
156,236.25,86.25,3.75,135,213.75,93.75,63.75,60,99.16666666666667
157,247.5,101.25,7.5,138.75,217.5,101.25,71.25,67.5,105.83333333333333
158,273.75,120,15,146.25,225,108.75,78.75,75,115.83333333333333
159,251.25,93.75,7.5,138.75,221.25,101.25,71.25,71.25,106.25
160,240,82.5,3.75,135,217.5,97.5,71.25,67.5,101.66666666666667
161,255,93.75,3.75,142.5,217.5,101.25,75,75,107.08333333333333
162,255,97.5,3.75,146.25,221.25,108.75,86.25,82.5,111.25
163,262.5,120,11.25,153.75,228.75,120,93.75,90,120.0
164,281.25,135,11.25,161.25,236.25,123.75,97.5,90,126.25
165,288.75,127.5,3.75,150,228.75,116.25,90,86.25,121.25
166,285,123.75,0,146.25,221.25,112.5,86.25,86.25,117.91666666666667
167,300,146.25,7.5,153.75,232.5,123.75,97.5,97.5,128.75
168,296.25,142.5,3.75,153.75,228.75,123.75,97.5,101.25,127.5
169,281.25,120,0,146.25,225,116.25,93.75,97.5,120.0
170,288.75,120,0,142.5,221.25,116.25,93.75,93.75,119.58333333333333
171,285,116.25,0,142.5,217.5,116.25,97.5,93.75,118.75
172,288.75,127.5,-11.25,131.25,210,105,86.25,86.25,113.75
173,292.5,150,-7.5,135,213.75,108.75,93.75,90,119.58333333333333
174,288.75,146.25,7.5,150,225,123.75,105,105,127.91666666666667
175,270,116.25,0,146.25,217.5,116.25,101.25,101.25,118.75
176,251.25,90,-15,131.25,202.5,93.75,82.5,86.25,102.5
177,277.5,105,-15,131.25,198.75,93.75,82.5,90,107.08333333333333
178,315,138.75,0,142.5,213.75,108.75,97.5,105,124.58333333333333
179,311.25,142.5,3.75,142.5,213.75,112.5,101.25,108.75,126.25
180,296.25,131.25,-3.75,138.75,206.25,108.75,97.5,101.25,119.58333333333333
181,255,97.5,-7.5,131.25,198.75,101.25,90,97.5,107.08333333333333
182,228.75,56.25,-22.5,105,176.25,78.75,71.25,78.75,85.83333333333333
183,258.75,75,-22.5,105,176.25,82.5,71.25,78.75,91.66666666666667
184,311.25,150,11.25,135,202.5,108.75,97.5,105,124.58333333333333
185,337.5,191.25,26.25,150,217.5,120,112.5,116.25,141.25
186,322.5,176.25,15,138.75,202.5,105,97.5,105,129.16666666666666
187,292.5,150,7.5,131.25,195,97.5,90,97.5,117.91666666666667
188,285,127.5,3.75,131.25,191.25,90,86.25,97.5,112.5
189,281.25,116.25,-3.75,123.75,180,82.5,75,90,105.0
190,307.5,135,-3.75,120,180,78.75,71.25,86.25,108.33333333333333
191,348.75,168.75,3.75,120,180,82.5,75,90,118.75
192,337.5,172.5,7.5,120,180,82.5,75,90,118.33333333333333
193,307.5,142.5,7.5,116.25,172.5,75,71.25,86.25,108.75
194,292.5,116.25,3.75,105,165,67.5,60,75,98.33333333333333
195,270,97.5,3.75,101.25,157.5,60,52.5,67.5,90.0
196,240,82.5,11.25,101.25,157.5,60,52.5,63.75,85.41666666666667
197,232.5,86.25,18.75,105,161.25,60,48.75,63.75,86.25
198,247.5,108.75,30,116.25,165,60,52.5,67.5,94.16666666666667
199,251.25,127.5,37.5,120,168.75,60,56.25,67.5,98.75
200,243.75,112.5,37.5,120,165,60,52.5,63.75,95.0
201,247.5,93.75,26.25,108.75,150,41.25,33.75,48.75,83.33333333333333
202,232.5,75,22.5,101.25,142.5,30,22.5,37.5,73.75
203,217.5,67.5,30,101.25,142.5,30,18.75,33.75,71.25
204,213.75,67.5,33.75,101.25,138.75,30,18.75,33.75,70.83333333333333
205,210,63.75,37.5,101.25,142.5,26.25,15,30,69.58333333333333
206,187.5,41.25,37.5,93.75,135,22.5,7.5,18.75,60.416666666666664
207,161.25,18.75,33.75,82.5,123.75,11.25,-3.75,3.75,47.916666666666664
208,153.75,3.75,26.25,71.25,112.5,-3.75,-18.75,-11.25,37.083333333333336
209,146.25,3.75,33.75,75,116.25,-3.75,-18.75,-11.25,37.916666666666664
210,150,37.5,56.25,97.5,135,15,-3.75,3.75,54.583333333333336
211,150,45,60,105,142.5,15,-7.5,3.75,57.083333333333336
212,150,15,41.25,86.25,120,-11.25,-26.25,-15,40.0
213,161.25,7.5,30,67.5,101.25,-26.25,-41.25,-26.25,30.416666666666668
214,165,11.25,37.5,71.25,105,-18.75,-33.75,-22.5,35.0
215,138.75,-3.75,33.75,67.5,105,-18.75,-33.75,-26.25,29.166666666666668
216,116.25,-15,37.5,67.5,105,-18.75,-37.5,-33.75,24.583333333333332
217,131.25,3.75,48.75,71.25,112.5,-11.25,-30,-30,32.916666666666664
218,153.75,11.25,52.5,67.5,112.5,-11.25,-30,-30,36.25
219,112.5,-33.75,37.5,45,90,-33.75,-56.25,-52.5,12.083333333333334
220,63.75,-71.25,30,33.75,78.75,-48.75,-67.5,-67.5,-5.416666666666667
221,105,-26.25,45,48.75,93.75,-33.75,-56.25,-56.25,13.333333333333334
222,150,18.75,56.25,60,105,-18.75,-41.25,-45,31.666666666666668
223,123.75,-7.5,48.75,52.5,93.75,-33.75,-56.25,-52.5,18.75
224,86.25,-37.5,45,45,82.5,-48.75,-63.75,-60,5.416666666666667
225,78.75,-45,37.5,37.5,78.75,-52.5,-71.25,-67.5,-0.4166666666666667
226,82.5,-41.25,41.25,33.75,78.75,-48.75,-67.5,-63.75,1.6666666666666667
227,86.25,-30,45,37.5,82.5,-45,-63.75,-60,5.833333333333333
228,105,-26.25,41.25,33.75,78.75,-48.75,-67.5,-63.75,5.833333333333333
229,82.5,-56.25,30,18.75,63.75,-60,-78.75,-75,-8.333333333333334
230,41.25,-90,26.25,7.5,56.25,-63.75,-86.25,-82.5,-21.25
231,41.25,-97.5,26.25,0,48.75,-75,-93.75,-93.75,-27.083333333333332
232,45,-78.75,33.75,7.5,56.25,-67.5,-90,-86.25,-20.0
233,33.75,-71.25,41.25,15,60,-63.75,-82.5,-82.5,-16.666666666666668
234,52.5,-63.75,37.5,11.25,60,-67.5,-86.25,-86.25,-15.833333333333334
235,71.25,-52.5,41.25,15,63.75,-63.75,-82.5,-82.5,-10.0
236,37.5,-86.25,22.5,0,48.75,-78.75,-97.5,-93.75,-27.5
237,18.75,-108.75,7.5,-15,33.75,-90,-108.75,-105,-40.833333333333336
238,60,-71.25,22.5,-3.75,48.75,-75,-97.5,-90,-22.916666666666668
239,63.75,-63.75,26.25,0,48.75,-71.25,-93.75,-90,-20.0
240,30,-90,22.5,-7.5,41.25,-82.5,-101.25,-97.5,-31.666666666666668
241,56.25,-71.25,26.25,-3.75,45,-75,-93.75,-90,-22.916666666666668
242,52.5,-75,26.25,-11.25,45,-75,-97.5,-93.75,-25.416666666666668
243,-3.75,-127.5,15,-26.25,26.25,-93.75,-116.25,-112.5,-48.75
244,-22.5,-142.5,7.5,-30,22.5,-97.5,-123.75,-120,-56.25
245,7.5,-97.5,22.5,-15,37.5,-82.5,-105,-105,-37.5
246,45,-52.5,41.25,7.5,56.25,-63.75,-90,-86.25,-15.833333333333334
247,45,-63.75,33.75,0,48.75,-75,-93.75,-93.75,-22.083333333333332
248,26.25,-90,18.75,-11.25,37.5,-86.25,-108.75,-105,-35.416666666666664
249,52.5,-75,15,-11.25,37.5,-86.25,-108.75,-105,-31.25
250,82.5,-56.25,22.5,-7.5,45,-78.75,-101.25,-101.25,-21.666666666666668
251,71.25,-60,22.5,-7.5,45,-75,-101.25,-97.5,-22.5
252,41.25,-71.25,26.25,-7.5,48.75,-78.75,-101.25,-97.5,-26.666666666666668
253,26.25,-90,15,-15,37.5,-86.25,-105,-105,-35.833333333333336
254,26.25,-105,11.25,-22.5,33.75,-86.25,-108.75,-108.75,-40.0
255,30,-105,15,-18.75,37.5,-82.5,-105,-105,-37.083333333333336
256,15,-108.75,18.75,-15,41.25,-78.75,-105,-105,-37.5
257,-7.5,-116.25,15,-15,41.25,-82.5,-105,-108.75,-42.083333333333336
258,-15,-120,15,-15,37.5,-86.25,-108.75,-108.75,-44.583333333333336
259,11.25,-97.5,18.75,-7.5,45,-78.75,-101.25,-101.25,-34.583333333333336
260,63.75,-63.75,22.5,3.75,52.5,-67.5,-90,-93.75,-19.166666666666668
261,75,-63.75,15,0,56.25,-71.25,-93.75,-93.75,-19.583333333333332
262,33.75,-90,11.25,-7.5,52.5,-75,-101.25,-97.5,-30.416666666666668
263,11.25,-101.25,11.25,-11.25,48.75,-78.75,-101.25,-101.25,-35.833333333333336
264,56.25,-67.5,18.75,-3.75,52.5,-75,-97.5,-93.75,-23.333333333333332
265,71.25,-45,26.25,3.75,63.75,-63.75,-86.25,-86.25,-12.916666666666666
266,22.5,-90,11.25,-11.25,48.75,-75,-97.5,-101.25,-32.5
267,11.25,-120,3.75,-18.75,41.25,-82.5,-105,-108.75,-42.083333333333336
268,37.5,-97.5,15,-11.25,52.5,-71.25,-93.75,-97.5,-29.583333333333332
269,48.75,-78.75,18.75,-3.75,60,-67.5,-90,-86.25,-22.083333333333332
270,45,-75,18.75,0,60,-71.25,-90,-86.25,-22.083333333333332
271,41.25,-71.25,18.75,0,60,-71.25,-90,-86.25,-22.083333333333332
272,37.5,-75,18.75,3.75,63.75,-67.5,-86.25,-86.25,-21.25
273,41.25,-82.5,15,0,63.75,-63.75,-82.5,-86.25,-21.666666666666668
274,22.5,-93.75,15,0,63.75,-60,-78.75,-82.5,-23.75
275,0,-90,18.75,3.75,71.25,-56.25,-75,-78.75,-22.916666666666668
276,7.5,-112.5,3.75,-11.25,56.25,-71.25,-93.75,-93.75,-35.0
277,22.5,-127.5,-7.5,-22.5,41.25,-82.5,-105,-105,-42.916666666666664
278,52.5,-86.25,7.5,-11.25,56.25,-67.5,-90,-90,-25.416666666666668
279,48.75,-78.75,22.5,-3.75,63.75,-60,-82.5,-86.25,-19.583333333333332
280,30,-86.25,30,0,67.5,-60,-82.5,-86.25,-20.833333333333332
281,18.75,-93.75,15,-3.75,60,-63.75,-86.25,-90,-27.083333333333332
282,3.75,-112.5,7.5,-11.25,56.25,-71.25,-93.75,-97.5,-35.416666666666664
283,30,-82.5,18.75,0,67.5,-60,-82.5,-86.25,-21.666666666666668
284,63.75,-56.25,18.75,7.5,71.25,-56.25,-78.75,-78.75,-12.083333333333334
285,37.5,-93.75,0,-11.25,52.5,-71.25,-93.75,-93.75,-30.416666666666668
286,7.5,-116.25,-3.75,-15,52.5,-75,-97.5,-93.75,-37.916666666666664
287,52.5,-78.75,7.5,-7.5,60,-60,-82.5,-82.5,-21.25
288,105,-45,15,-3.75,63.75,-56.25,-78.75,-78.75,-8.75
289,56.25,-97.5,-3.75,-18.75,48.75,-71.25,-93.75,-93.75,-30.416666666666668
290,-7.5,-157.5,-15,-33.75,33.75,-82.5,-105,-108.75,-52.916666666666664
291,18.75,-116.25,7.5,-18.75,56.25,-63.75,-86.25,-90,-32.5
292,63.75,-67.5,22.5,-3.75,67.5,-48.75,-71.25,-75,-12.5
293,60,-63.75,22.5,0,71.25,-45,-67.5,-75,-10.833333333333334
294,33.75,-78.75,15,-3.75,67.5,-48.75,-75,-78.75,-18.75
295,30,-82.5,11.25,-7.5,60,-60,-82.5,-82.5,-23.75
296,41.25,-78.75,11.25,-3.75,60,-60,-82.5,-82.5,-21.666666666666668
297,22.5,-108.75,-7.5,-22.5,45,-75,-97.5,-97.5,-37.916666666666664
298,26.25,-105,-11.25,-30,41.25,-78.75,-101.25,-101.25,-40.0
299,71.25,-60,3.75,-15,56.25,-63.75,-86.25,-86.25,-20.0
300,75,-56.25,7.5,-11.25,60,-56.25,-78.75,-82.5,-15.833333333333334
301,33.75,-97.5,-7.5,-26.25,45,-71.25,-93.75,-93.75,-34.583333333333336
302,33.75,-112.5,-7.5,-33.75,41.25,-71.25,-93.75,-101.25,-38.333333333333336
303,67.5,-75,3.75,-18.75,56.25,-56.25,-75,-82.5,-20.0
304,60,-63.75,11.25,-15,60,-56.25,-78.75,-82.5,-18.333333333333332
305,18.75,-86.25,15,-15,56.25,-60,-82.5,-86.25,-26.666666666666668
306,41.25,-75,15,-11.25,60,-56.25,-75,-78.75,-20.0
307,67.5,-71.25,7.5,-15,56.25,-63.75,-82.5,-82.5,-20.416666666666668
308,41.25,-93.75,-3.75,-22.5,48.75,-71.25,-90,-90,-31.25
309,52.5,-75,0,-18.75,56.25,-63.75,-78.75,-82.5,-23.333333333333332
310,63.75,-67.5,3.75,-18.75,56.25,-60,-75,-75,-19.166666666666668
311,33.75,-97.5,-7.5,-30,45,-75,-90,-90,-34.583333333333336
312,26.25,-108.75,-11.25,-37.5,41.25,-75,-90,-90,-38.333333333333336
313,30,-108.75,-11.25,-37.5,37.5,-75,-90,-90,-38.333333333333336
314,33.75,-112.5,-15,-45,33.75,-78.75,-93.75,-93.75,-41.25
315,45,-105,-11.25,-41.25,41.25,-75,-90,-93.75,-36.666666666666664
316,71.25,-75,3.75,-30,48.75,-63.75,-78.75,-82.5,-22.916666666666668
317,48.75,-71.25,11.25,-26.25,56.25,-60,-75,-78.75,-21.666666666666668
318,15,-86.25,7.5,-22.5,56.25,-60,-71.25,-75,-26.25
319,33.75,-78.75,0,-30,48.75,-67.5,-78.75,-82.5,-28.333333333333332
320,52.5,-75,-7.5,-33.75,41.25,-75,-86.25,-90,-30.416666666666668
321,45,-90,-15,-45,30,-82.5,-93.75,-97.5,-38.75
322,48.75,-93.75,-22.5,-52.5,22.5,-86.25,-97.5,-101.25,-42.5
323,48.75,-90,-18.75,-52.5,26.25,-86.25,-97.5,-97.5,-40.833333333333336
324,30,-108.75,-26.25,-60,18.75,-93.75,-108.75,-105,-50.416666666666664
325,22.5,-116.25,-22.5,-60,22.5,-93.75,-108.75,-97.5,-50.416666666666664
326,33.75,-116.25,-18.75,-56.25,18.75,-90,-101.25,-97.5,-47.5
327,37.5,-120,-18.75,-60,15,-90,-105,-101.25,-49.166666666666664
328,48.75,-93.75,-15,-56.25,22.5,-82.5,-97.5,-101.25,-41.666666666666664
329,45,-82.5,0,-41.25,33.75,-63.75,-86.25,-90,-31.666666666666668
330,48.75,-78.75,-3.75,-41.25,37.5,-63.75,-82.5,-86.25,-30.0
331,37.5,-86.25,-7.5,-45,30,-71.25,-86.25,-86.25,-35.0
332,33.75,-90,-15,-48.75,26.25,-82.5,-97.5,-93.75,-40.833333333333336
333,22.5,-108.75,-22.5,-60,18.75,-90,-105,-101.25,-49.583333333333336
334,-11.25,-131.25,-26.25,-63.75,11.25,-90,-105,-101.25,-57.5
335,11.25,-116.25,-22.5,-60,18.75,-86.25,-101.25,-97.5,-50.416666666666664
336,71.25,-71.25,-11.25,-48.75,30,-75,-90,-90,-31.666666666666668
337,82.5,-63.75,-7.5,-45,33.75,-67.5,-86.25,-82.5,-26.25
338,52.5,-108.75,-26.25,-71.25,7.5,-93.75,-105,-101.25,-49.583333333333336
339,52.5,-101.25,-22.5,-67.5,11.25,-90,-105,-101.25,-47.083333333333336
340,45,-86.25,-15,-60,22.5,-78.75,-90,-93.75,-39.583333333333336
341,-18.75,-138.75,-30,-75,7.5,-90,-101.25,-105,-61.25
342,-15,-131.25,-22.5,-67.5,11.25,-90,-105,-105,-58.333333333333336
343,45,-75,-11.25,-48.75,30,-75,-90,-90,-35.0
344,45,-90,-26.25,-60,15,-90,-97.5,-97.5,-44.583333333333336
345,45,-116.25,-37.5,-75,0,-105,-112.5,-108.75,-56.666666666666664
346,86.25,-86.25,-37.5,-71.25,3.75,-97.5,-112.5,-101.25,-46.25
347,82.5,-82.5,-33.75,-71.25,7.5,-93.75,-108.75,-97.5,-44.166666666666664
348,37.5,-112.5,-33.75,-75,7.5,-97.5,-112.5,-97.5,-53.75
349,11.25,-123.75,-30,-75,3.75,-97.5,-112.5,-101.25,-58.333333333333336
350,7.5,-116.25,-18.75,-67.5,11.25,-90,-105,-101.25,-53.333333333333336
351,33.75,-97.5,-15,-67.5,15,-86.25,-101.25,-101.25,-46.666666666666664
352,45,-93.75,-18.75,-67.5,11.25,-86.25,-105,-101.25,-46.25
353,45,-90,-22.5,-71.25,11.25,-90,-108.75,-101.25,-47.5
354,30,-105,-22.5,-71.25,7.5,-93.75,-112.5,-101.25,-52.083333333333336
355,-3.75,-135,-26.25,-71.25,3.75,-101.25,-120,-108.75,-62.5
356,7.5,-123.75,-26.25,-67.5,7.5,-101.25,-116.25,-108.75,-58.75
357,45,-93.75,-22.5,-63.75,11.25,-93.75,-108.75,-97.5,-47.083333333333336
358,0,-150,-45,-86.25,-7.5,-108.75,-127.5,-116.25,-71.25
359,-18.75,-172.5,-56.25,-97.5,-15,-116.25,-131.25,-123.75,-81.25
360,45,-105,-30,-71.25,11.25,-93.75,-108.75,-93.75,-49.583333333333336
361,71.25,-86.25,-30,-71.25,11.25,-90,-105,-90,-43.333333333333336
362,52.5,-105,-33.75,-78.75,3.75,-93.75,-108.75,-101.25,-51.666666666666664
363,45,-105,-26.25,-75,7.5,-90,-105,-101.25,-50.0
364,33.75,-101.25,-22.5,-71.25,11.25,-90,-105,-97.5,-49.166666666666664
365,22.5,-108.75,-22.5,-71.25,11.25,-90,-105,-97.5,-51.25
366,37.5,-108.75,-22.5,-71.25,11.25,-90,-105,-101.25,-50.0
367,26.25,-105,-22.5,-67.5,11.25,-93.75,-105,-101.25,-50.833333333333336
368,3.75,-108.75,-22.5,-67.5,11.25,-93.75,-105,-101.25,-53.75
369,18.75,-105,-33.75,-71.25,7.5,-97.5,-108.75,-101.25,-54.583333333333336
370,45,-97.5,-37.5,-75,7.5,-97.5,-108.75,-101.25,-51.666666666666664
371,22.5,-131.25,-45,-90,-7.5,-112.5,-127.5,-116.25,-67.5
372,11.25,-146.25,-45,-93.75,-11.25,-120,-135,-120,-73.33333333333333
373,-7.5,-153.75,-41.25,-90,-3.75,-112.5,-127.5,-112.5,-72.08333333333333
374,-26.25,-165,-45,-93.75,-11.25,-112.5,-127.5,-112.5,-77.08333333333333
375,26.25,-123.75,-30,-82.5,0,-101.25,-108.75,-101.25,-57.916666666666664
376,52.5,-90,-11.25,-67.5,15,-82.5,-93.75,-90,-40.833333333333336
377,18.75,-105,-18.75,-71.25,11.25,-86.25,-105,-101.25,-50.833333333333336
378,3.75,-131.25,-37.5,-86.25,-3.75,-105,-120,-116.25,-66.25
379,26.25,-116.25,-41.25,-82.5,-7.5,-108.75,-120,-112.5,-62.5
380,71.25,-67.5,-22.5,-63.75,15,-90,-101.25,-93.75,-39.166666666666664
381,52.5,-75,-22.5,-63.75,15,-90,-101.25,-90,-41.666666666666664
382,11.25,-108.75,-30,-71.25,7.5,-93.75,-108.75,-97.5,-54.583333333333336
383,18.75,-116.25,-37.5,-78.75,3.75,-97.5,-112.5,-101.25,-57.916666666666664
384,48.75,-112.5,-45,-86.25,-3.75,-105,-120,-108.75,-59.166666666666664
385,45,-120,-45,-93.75,-11.25,-108.75,-123.75,-112.5,-63.333333333333336
386,30,-131.25,-48.75,-97.5,-11.25,-108.75,-123.75,-116.25,-67.5
387,37.5,-120,-41.25,-90,-3.75,-101.25,-116.25,-108.75,-60.416666666666664
388,33.75,-105,-30,-82.5,3.75,-93.75,-108.75,-101.25,-53.75
389,22.5,-108.75,-26.25,-78.75,3.75,-93.75,-105,-101.25,-54.166666666666664
390,26.25,-108.75,-26.25,-75,3.75,-97.5,-108.75,-101.25,-54.166666666666664
391,41.25,-82.5,-18.75,-60,18.75,-86.25,-101.25,-90,-42.083333333333336
392,67.5,-56.25,-15,-56.25,22.5,-82.5,-97.5,-86.25,-33.75
393,37.5,-82.5,-22.5,-67.5,11.25,-90,-105,-97.5,-46.25
394,37.5,-90,-22.5,-67.5,15,-90,-101.25,-93.75,-45.833333333333336
395,63.75,-71.25,-18.75,-60,18.75,-86.25,-97.5,-90,-37.916666666666664
396,37.5,-71.25,-3.75,-52.5,26.25,-78.75,-93.75,-82.5,-35.416666666666664
397,7.5,-78.75,3.75,-45,33.75,-67.5,-82.5,-75,-33.75
398,7.5,-78.75,7.5,-52.5,30,-71.25,-82.5,-82.5,-35.833333333333336
399,26.25,-67.5,7.5,-52.5,30,-71.25,-86.25,-82.5,-32.916666666666664
400,37.5,-56.25,15,-45,33.75,-63.75,-78.75,-78.75,-26.25
401,18.75,-63.75,18.75,-41.25,37.5,-63.75,-82.5,-78.75,-28.333333333333332
402,26.25,-48.75,30,-30,45,-63.75,-82.5,-78.75,-22.5
403,82.5,-7.5,41.25,-15,60,-52.5,-67.5,-63.75,-2.5
404,101.25,-11.25,30,-15,56.25,-56.25,-71.25,-67.5,-3.75
405,63.75,-48.75,15,-22.5,48.75,-60,-71.25,-71.25,-16.25
406,60,-56.25,18.75,-22.5,52.5,-52.5,-67.5,-71.25,-15.416666666666666
407,63.75,-52.5,26.25,-22.5,52.5,-52.5,-75,-71.25,-14.583333333333334
408,56.25,-52.5,30,-22.5,52.5,-56.25,-78.75,-71.25,-15.833333333333334
409,30,-82.5,15,-37.5,37.5,-71.25,-90,-86.25,-31.666666666666668
410,15,-101.25,7.5,-45,33.75,-78.75,-97.5,-93.75,-40.0
411,60,-41.25,33.75,-22.5,60,-48.75,-71.25,-67.5,-10.833333333333334
412,90,11.25,45,-7.5,71.25,-37.5,-56.25,-48.75,7.5
413,52.5,0,41.25,-3.75,71.25,-37.5,-48.75,-41.25,3.75
414,63.75,11.25,30,0,78.75,-22.5,-37.5,-30,10.416666666666666
415,105,33.75,15,0,82.5,-18.75,-30,-26.25,17.916666666666668
416,116.25,18.75,-15,-18.75,67.5,-30,-45,-41.25,5.833333333333333
417,108.75,-7.5,-37.5,-37.5,48.75,-45,-60,-52.5,-9.166666666666666
418,78.75,-22.5,-33.75,-41.25,52.5,-45,-60,-48.75,-13.333333333333334
419,33.75,-48.75,-30,-33.75,56.25,-37.5,-52.5,-41.25,-17.083333333333332
420,33.75,-67.5,-45,-52.5,37.5,-52.5,-63.75,-56.25,-29.583333333333332
421,75,-56.25,-52.5,-60,33.75,-60,-67.5,-56.25,-27.083333333333332
422,101.25,-52.5,-63.75,-75,22.5,-67.5,-75,-60,-30.0
423,97.5,-52.5,-63.75,-82.5,15,-75,-82.5,-67.5,-34.583333333333336
424,86.25,-48.75,-60,-82.5,18.75,-75,-78.75,-67.5,-34.166666666666664
425,60,-71.25,-63.75,-86.25,11.25,-82.5,-86.25,-71.25,-43.333333333333336
426,60,-71.25,-56.25,-78.75,18.75,-75,-82.5,-67.5,-39.166666666666664
427,63.75,-48.75,-37.5,-60,30,-60,-67.5,-52.5,-25.833333333333332
428,60,-60,-48.75,-67.5,18.75,-75,-78.75,-63.75,-35.0
429,75,-71.25,-56.25,-75,11.25,-82.5,-90,-71.25,-40.0
430,63.75,-97.5,-63.75,-86.25,3.75,-90,-97.5,-82.5,-50.0
431,63.75,-97.5,-63.75,-86.25,0,-86.25,-93.75,-78.75,-49.166666666666664
432,63.75,-75,-52.5,-78.75,11.25,-82.5,-90,-71.25,-41.666666666666664
433,45,-71.25,-37.5,-71.25,18.75,-71.25,-82.5,-63.75,-37.083333333333336
434,60,-75,-41.25,-78.75,11.25,-75,-86.25,-71.25,-39.583333333333336
435,60,-101.25,-56.25,-97.5,-7.5,-93.75,-105,-90,-54.583333333333336
436,48.75,-101.25,-48.75,-93.75,-3.75,-93.75,-101.25,-90,-53.75
437,56.25,-75,-37.5,-86.25,3.75,-82.5,-93.75,-78.75,-43.75
438,41.25,-82.5,-37.5,-86.25,0,-90,-101.25,-86.25,-49.166666666666664
439,30,-90,-41.25,-86.25,-3.75,-93.75,-105,-90,-53.333333333333336
440,37.5,-90,-48.75,-90,-7.5,-101.25,-112.5,-97.5,-56.666666666666664
441,33.75,-105,-52.5,-97.5,-11.25,-105,-116.25,-101.25,-61.666666666666664
442,11.25,-120,-48.75,-97.5,-11.25,-105,-116.25,-101.25,-65.41666666666667
443,11.25,-135,-63.75,-108.75,-22.5,-116.25,-127.5,-108.75,-74.58333333333333
444,7.5,-153.75,-78.75,-123.75,-37.5,-127.5,-138.75,-123.75,-86.25
445,15,-153.75,-71.25,-123.75,-37.5,-123.75,-135,-120,-83.33333333333333
446,41.25,-135,-60,-116.25,-30,-116.25,-123.75,-108.75,-72.08333333333333
447,11.25,-142.5,-56.25,-116.25,-33.75,-120,-127.5,-108.75,-77.08333333333333
448,-7.5,-146.25,-52.5,-112.5,-30,-116.25,-127.5,-116.25,-78.75
449,0,-138.75,-52.5,-112.5,-30,-116.25,-127.5,-120,-77.5
450,-15,-146.25,-56.25,-120,-37.5,-120,-131.25,-123.75,-83.33333333333333
451,-7.5,-142.5,-63.75,-120,-37.5,-123.75,-135,-120,-83.33333333333333
452,-18.75,-131.25,-48.75,-101.25,-22.5,-112.5,-123.75,-108.75,-74.16666666666667
453,-56.25,-142.5,-45,-93.75,-15,-105,-116.25,-101.25,-75.0
454,-7.5,-135,-60,-112.5,-26.25,-112.5,-120,-108.75,-75.83333333333333
455,37.5,-116.25,-63.75,-116.25,-33.75,-120,-127.5,-116.25,-72.91666666666667
456,22.5,-120,-60,-108.75,-30,-120,-131.25,-116.25,-73.75
457,15,-127.5,-60,-108.75,-30,-120,-131.25,-116.25,-75.41666666666667
458,3.75,-146.25,-60,-116.25,-33.75,-120,-127.5,-116.25,-79.58333333333333
459,-30,-168.75,-60,-120,-33.75,-123.75,-135,-123.75,-88.33333333333333
460,-26.25,-157.5,-52.5,-112.5,-30,-120,-131.25,-120,-83.33333333333333
461,-11.25,-142.5,-48.75,-108.75,-26.25,-116.25,-127.5,-116.25,-77.5
462,0,-131.25,-48.75,-105,-26.25,-108.75,-116.25,-108.75,-71.66666666666667
463,3.75,-116.25,-48.75,-101.25,-22.5,-108.75,-116.25,-105,-68.33333333333333
464,-11.25,-123.75,-52.5,-105,-26.25,-120,-131.25,-112.5,-75.83333333333333
465,3.75,-123.75,-56.25,-112.5,-33.75,-123.75,-135,-116.25,-77.5
466,11.25,-131.25,-60,-112.5,-37.5,-127.5,-135,-120,-79.16666666666667
467,-3.75,-150,-48.75,-101.25,-33.75,-127.5,-142.5,-127.5,-81.66666666666667
468,-22.5,-176.25,-22.5,-82.5,-30,-138.75,-157.5,-142.5,-85.83333333333333
469,-22.5,-195,15,-45,-22.5,-150,-176.25,-165,-84.58333333333333
470,-3.75,-213.75,63.75,-7.5,-18.75,-165,-202.5,-195,-82.5
471,22.5,-225,116.25,33.75,-22.5,-187.5,-228.75,-232.5,-80.41666666666667
472,15,-228.75,168.75,75,-15,-198.75,-247.5,-247.5,-75.41666666666667
473,11.25,-221.25,206.25,123.75,7.5,-195,-247.5,-243.75,-62.083333333333336
474,30,-195,240,180,45,-168.75,-228.75,-228.75,-36.25
475,78.75,-120,281.25,266.25,120,-108.75,-172.5,-180,18.333333333333332
476,138.75,-41.25,318.75,352.5,195,-41.25,-108.75,-123.75,76.66666666666667
477,195,0,326.25,397.5,247.5,11.25,-60,-78.75,115.41666666666667
478,232.5,41.25,318.75,431.25,292.5,63.75,-7.5,-26.25,149.58333333333334
479,247.5,86.25,322.5,472.5,352.5,131.25,60,41.25,190.41666666666666
480,315,168.75,318.75,525,431.25,228.75,161.25,138.75,254.16666666666666
481,408.75,285,296.25,577.5,528.75,352.5,288.75,258.75,332.9166666666667
482,476.25,420,273.75,607.5,622.5,480,427.5,386.25,410.4166666666667
483,536.25,566.25,221.25,611.25,708.75,611.25,581.25,536.25,485.8333333333333
484,581.25,708.75,168.75,626.25,817.5,761.25,731.25,686.25,564.5833333333334
485,611.25,885,165,693.75,960,933.75,903.75,847.5,666.6666666666666
486,637.5,1106.25,116.25,701.25,1068.75,1106.25,1106.25,1050,765.8333333333334
487,667.5,1327.5,-18.75,615,1128.75,1260,1305,1263.75,838.75
488,720,1477.5,-157.5,513.75,1173.75,1395,1470,1440,892.5
489,768.75,1556.25,-292.5,352.5,1177.5,1492.5,1593.75,1563.75,912.5
490,742.5,1601.25,-408.75,187.5,1177.5,1575,1698.75,1661.25,915.0
491,637.5,1552.5,-431.25,153.75,1226.25,1650,1758.75,1695,915.8333333333334
492,536.25,1455,-405,165,1282.5,1702.5,1777.5,1668.75,909.1666666666666
493,476.25,1387.5,-420,108.75,1286.25,1710,1758.75,1623.75,881.25
494,382.5,1282.5,-472.5,-18.75,1211.25,1631.25,1668.75,1526.25,801.25
495,273.75,1121.25,-491.25,-138.75,1065,1443.75,1477.5,1350,677.9166666666666
496,202.5,971.25,-435,-202.5,900,1203.75,1230,1128.75,555.4166666666666
497,120,795,-397.5,-296.25,671.25,915,952.5,888.75,405.4166666666667
498,30,603.75,-427.5,-465,360,570,641.25,645,217.5
499,-78.75,427.5,-457.5,-637.5,71.25,258.75,367.5,427.5,42.083333333333336
500,-142.5,281.25,-468.75,-723.75,-105,52.5,168.75,251.25,-76.25
501,-161.25,165,-427.5,-686.25,-142.5,-37.5,48.75,120,-124.58333333333333
502,-195,67.5,-390,-626.25,-131.25,-63.75,-7.5,41.25,-145.0
503,-180,7.5,-401.25,-585,-116.25,-71.25,-37.5,-3.75,-154.16666666666666
504,-108.75,7.5,-405,-528.75,-86.25,-56.25,-33.75,-11.25,-135.83333333333334
505,-86.25,0,-386.25,-476.25,-71.25,-48.75,-26.25,-7.5,-122.5
506,-105,-45,-356.25,-442.5,-86.25,-67.5,-41.25,-22.5,-129.58333333333334
507,-78.75,-60,-315,-397.5,-82.5,-78.75,-52.5,-30,-121.66666666666667
508,-30,-30,-262.5,-322.5,-48.75,-60,-37.5,-18.75,-90.0
509,-11.25,3.75,-225,-251.25,-3.75,-30,-11.25,0,-58.75
510,0,22.5,-183.75,-187.5,41.25,3.75,18.75,18.75,-29.583333333333332
511,26.25,30,-150,-131.25,75,22.5,26.25,26.25,-8.333333333333334
512,41.25,30,-123.75,-82.5,105,33.75,26.25,30,6.666666666666667
513,48.75,18.75,-82.5,-48.75,123.75,45,37.5,30,19.166666666666668
514,52.5,11.25,-52.5,-30,127.5,45,30,22.5,22.916666666666668
515,30,-11.25,-41.25,-22.5,123.75,33.75,15,11.25,15.416666666666666
516,48.75,0,-22.5,-11.25,127.5,30,11.25,7.5,21.25
517,78.75,3.75,-15,-11.25,120,26.25,7.5,3.75,23.75
518,60,-33.75,-22.5,-22.5,101.25,7.5,-11.25,-18.75,6.666666666666667
519,33.75,-52.5,-22.5,-30,93.75,-3.75,-26.25,-30,-4.166666666666667
520,30,-52.5,-22.5,-33.75,86.25,-18.75,-37.5,-41.25,-10.0
521,45,-45,-15,-26.25,82.5,-22.5,-41.25,-41.25,-7.083333333333333
522,56.25,-45,-15,-22.5,82.5,-22.5,-41.25,-45,-5.833333333333333
523,33.75,-67.5,-22.5,-22.5,71.25,-37.5,-56.25,-52.5,-17.083333333333332
524,15,-90,-33.75,-33.75,60,-52.5,-67.5,-63.75,-29.583333333333332
525,33.75,-75,-26.25,-30,60,-48.75,-63.75,-60,-23.333333333333332
526,37.5,-67.5,-22.5,-26.25,63.75,-48.75,-60,-60,-20.416666666666668
527,45,-67.5,-18.75,-26.25,63.75,-48.75,-63.75,-56.25,-19.166666666666668
528,97.5,-22.5,7.5,-3.75,86.25,-26.25,-37.5,-33.75,7.5
529,97.5,-22.5,11.25,0,90,-22.5,-37.5,-33.75,9.166666666666666
530,60,-67.5,-3.75,-15,71.25,-37.5,-52.5,-48.75,-10.416666666666666
531,52.5,-75,-3.75,-18.75,67.5,-41.25,-56.25,-52.5,-14.166666666666666
532,78.75,-37.5,11.25,0,86.25,-22.5,-41.25,-41.25,3.75
533,71.25,-37.5,11.25,0,82.5,-26.25,-41.25,-41.25,2.0833333333333335
534,56.25,-45,11.25,3.75,86.25,-26.25,-41.25,-41.25,0.4166666666666667
535,63.75,-30,15,15,93.75,-18.75,-33.75,-33.75,7.916666666666667
536,63.75,-41.25,0,3.75,82.5,-30,-45,-41.25,-0.8333333333333334
537,93.75,-26.25,0,3.75,78.75,-37.5,-56.25,-41.25,1.6666666666666667
538,112.5,-7.5,7.5,7.5,82.5,-30,-45,-33.75,10.416666666666666
539,90,-30,-3.75,0,75,-33.75,-48.75,-41.25,0.8333333333333334
540,97.5,-30,-7.5,-3.75,75,-30,-45,-41.25,1.6666666666666667
541,105,-26.25,-3.75,0,78.75,-22.5,-41.25,-33.75,6.25
542,82.5,-52.5,-3.75,0,78.75,-22.5,-41.25,-37.5,0.4166666666666667
543,82.5,-56.25,-3.75,0,78.75,-22.5,-45,-41.25,-0.8333333333333334
544,93.75,-30,11.25,11.25,93.75,-11.25,-33.75,-33.75,11.25
545,78.75,-11.25,26.25,26.25,105,0,-18.75,-18.75,20.833333333333332
546,63.75,-18.75,22.5,26.25,105,0,-18.75,-18.75,17.916666666666668
547,101.25,-18.75,0,18.75,97.5,-11.25,-30,-30,14.166666666666666
548,127.5,-7.5,-7.5,22.5,97.5,-11.25,-26.25,-26.25,18.75
549,120,-11.25,-3.75,22.5,101.25,-7.5,-26.25,-22.5,19.166666666666668
550,116.25,-15,0,18.75,97.5,-11.25,-26.25,-22.5,17.5
551,116.25,-22.5,-3.75,15,90,-18.75,-33.75,-30,12.5
552,116.25,-22.5,-3.75,15,90,-18.75,-33.75,-30,12.5
553,123.75,-11.25,0,22.5,93.75,-7.5,-26.25,-22.5,19.166666666666668
554,135,7.5,11.25,33.75,112.5,11.25,-7.5,-7.5,32.916666666666664
555,135,7.5,18.75,41.25,123.75,22.5,0,-3.75,38.333333333333336
556,131.25,3.75,11.25,37.5,120,18.75,-3.75,-7.5,34.583333333333336
557,116.25,-18.75,7.5,30,108.75,7.5,-11.25,-18.75,24.583333333333332
558,105,-30,3.75,30,108.75,3.75,-15,-22.5,20.416666666666668
559,142.5,18.75,15,52.5,127.5,22.5,3.75,0,42.5
560,165,45,18.75,63.75,138.75,30,15,7.5,53.75
561,168.75,26.25,0,45,123.75,18.75,0,-3.75,42.083333333333336
562,165,-7.5,-26.25,22.5,105,0,-18.75,-18.75,24.583333333333332
563,131.25,-45,-30,18.75,101.25,-3.75,-18.75,-18.75,15.0
564,127.5,-33.75,-15,30,108.75,7.5,-7.5,-11.25,22.916666666666668
565,108.75,-45,-15,30,108.75,7.5,-11.25,-15,18.75
566,101.25,-45,-11.25,30,112.5,15,-3.75,-15,20.416666666666668
567,153.75,15,15,60,138.75,41.25,26.25,15,51.666666666666664
568,195,48.75,26.25,75,153.75,56.25,37.5,30,69.16666666666667
569,165,22.5,15,67.5,150,45,18.75,15,55.416666666666664
570,142.5,15,15,71.25,146.25,41.25,18.75,15,51.666666666666664
571,180,48.75,22.5,86.25,157.5,52.5,30,26.25,67.08333333333333
572,172.5,37.5,18.75,82.5,153.75,48.75,30,30,63.75
573,146.25,15,11.25,75,150,45,22.5,26.25,54.583333333333336
574,123.75,0,3.75,71.25,146.25,41.25,18.75,15,46.666666666666664
575,146.25,15,7.5,75,150,52.5,33.75,22.5,55.833333333333336
576,172.5,33.75,7.5,78.75,153.75,52.5,30,30,62.083333333333336
577,180,30,0,78.75,153.75,48.75,30,30,61.25
578,187.5,37.5,3.75,82.5,157.5,56.25,37.5,33.75,66.25
579,161.25,30,11.25,82.5,161.25,60,37.5,33.75,64.16666666666667
580,157.5,41.25,18.75,90,172.5,67.5,48.75,41.25,70.83333333333333
581,172.5,60,26.25,105,180,78.75,60,52.5,81.66666666666667
582,165,48.75,18.75,101.25,176.25,78.75,56.25,48.75,77.08333333333333
583,176.25,52.5,15,105,180,78.75,60,48.75,79.58333333333333
584,195,63.75,15,105,180,75,56.25,52.5,82.5
585,172.5,33.75,0,93.75,172.5,63.75,45,45,69.58333333333333
586,165,26.25,-3.75,93.75,172.5,63.75,45,45,67.5
587,217.5,75,7.5,105,183.75,78.75,63.75,60,87.91666666666667
588,228.75,82.5,7.5,108.75,187.5,86.25,75,67.5,93.75
589,217.5,67.5,0,101.25,183.75,86.25,71.25,63.75,87.91666666666667
590,228.75,71.25,7.5,101.25,187.5,93.75,75,63.75,92.08333333333333
591,206.25,52.5,0,93.75,176.25,82.5,67.5,56.25,81.66666666666667
592,172.5,30,-3.75,90,172.5,78.75,63.75,48.75,72.5
593,183.75,48.75,7.5,105,183.75,90,75,63.75,84.16666666666667
594,210,78.75,22.5,120,195,101.25,86.25,75,98.75
595,228.75,97.5,18.75,123.75,202.5,105,90,78.75,105.0
596,270,123.75,15,127.5,206.25,108.75,97.5,86.25,115.0
597,251.25,101.25,7.5,120,195,105,90,78.75,105.41666666666667
598,232.5,82.5,7.5,112.5,187.5,101.25,86.25,78.75,98.75
599,247.5,86.25,3.75,108.75,183.75,101.25,86.25,78.75,99.58333333333333
600,228.75,60,-11.25,97.5,176.25,90,78.75,71.25,87.91666666666667
601,206.25,56.25,-7.5,97.5,180,90,82.5,75,86.66666666666667
602,191.25,90,22.5,123.75,202.5,116.25,105,97.5,105.41666666666667
603,202.5,93.75,22.5,120,198.75,116.25,105,97.5,106.25
604,240,75,-3.75,97.5,172.5,90,82.5,75,92.08333333333333
605,277.5,90,-3.75,97.5,176.25,93.75,86.25,75,99.16666666666667
606,296.25,123.75,7.5,112.5,187.5,105,97.5,90,113.33333333333333
607,288.75,131.25,7.5,116.25,191.25,105,105,97.5,115.83333333333333
608,273.75,120,0,112.5,187.5,97.5,97.5,90,108.75
609,277.5,112.5,-3.75,108.75,183.75,97.5,97.5,93.75,107.5
610,255,93.75,-11.25,97.5,172.5,90,90,90,97.5
611,240,82.5,-7.5,93.75,165,86.25,86.25,86.25,92.5
612,232.5,82.5,-7.5,90,161.25,82.5,86.25,82.5,90.0
613,232.5,93.75,-3.75,93.75,168.75,90,93.75,86.25,95.0
614,262.5,108.75,3.75,90,161.25,86.25,86.25,82.5,97.91666666666667
615,277.5,108.75,3.75,86.25,153.75,75,78.75,75,95.41666666666667
616,270,116.25,7.5,90,161.25,78.75,86.25,82.5,99.16666666666667
617,258.75,116.25,11.25,90,157.5,82.5,90,86.25,99.16666666666667
618,247.5,105,7.5,90,153.75,78.75,82.5,78.75,93.75
619,251.25,116.25,15,97.5,161.25,78.75,82.5,86.25,98.75
620,236.25,97.5,3.75,90,146.25,67.5,75,78.75,88.33333333333333
621,225,75,-7.5,78.75,135,56.25,67.5,71.25,77.91666666666667
622,258.75,116.25,11.25,93.75,150,75,82.5,86.25,97.08333333333333
623,258.75,127.5,22.5,97.5,157.5,78.75,82.5,90,101.66666666666667
624,228.75,90,11.25,78.75,138.75,60,67.5,75,83.33333333333333
625,240,86.25,7.5,71.25,131.25,52.5,63.75,67.5,80.0
626,255,97.5,15,75,135,56.25,63.75,67.5,85.0
627,240,90,18.75,75,135,56.25,63.75,63.75,82.5
628,213.75,82.5,26.25,78.75,135,56.25,71.25,67.5,81.25
629,195,75,26.25,75,127.5,48.75,60,56.25,73.75
630,195,71.25,33.75,75,123.75,33.75,37.5,48.75,68.75
631,198.75,75,33.75,75,120,26.25,30,45,67.08333333333333
632,191.25,67.5,30,71.25,112.5,18.75,26.25,37.5,61.666666666666664
633,191.25,60,33.75,67.5,108.75,15,22.5,33.75,59.166666666666664
634,198.75,63.75,37.5,67.5,108.75,15,18.75,30,60.0
635,183.75,56.25,41.25,67.5,108.75,11.25,15,26.25,56.666666666666664
636,142.5,30,45,67.5,105,7.5,11.25,18.75,47.5
637,123.75,22.5,48.75,67.5,108.75,11.25,15,22.5,46.666666666666664
638,131.25,15,48.75,60,105,11.25,11.25,11.25,43.75
639,168.75,11.25,37.5,48.75,93.75,0,-3.75,-7.5,38.75
640,165,11.25,48.75,56.25,97.5,3.75,-3.75,-7.5,41.25
641,123.75,3.75,60,60,97.5,0,-3.75,-7.5,37.083333333333336
642,108.75,3.75,56.25,60,97.5,-3.75,-7.5,-11.25,33.75
643,101.25,-3.75,56.25,63.75,97.5,-7.5,-7.5,-11.25,32.083333333333336
644,112.5,0,56.25,60,97.5,-11.25,-15,-15,31.666666666666668
645,135,7.5,60,60,97.5,-7.5,-15,-15,35.833333333333336
646,123.75,-7.5,52.5,45,86.25,-15,-22.5,-22.5,26.666666666666668
647,116.25,-7.5,52.5,45,82.5,-22.5,-26.25,-22.5,24.166666666666668
648,101.25,-15,56.25,41.25,82.5,-22.5,-30,-30,20.416666666666668
649,56.25,-60,52.5,30,71.25,-33.75,-41.25,-45,3.3333333333333335
650,67.5,-56.25,52.5,22.5,67.5,-37.5,-45,-48.75,2.5
651,71.25,-41.25,63.75,30,75,-30,-37.5,-45,9.583333333333334
652,56.25,-45,60,26.25,71.25,-33.75,-41.25,-52.5,4.583333333333333
653,37.5,-67.5,52.5,18.75,60,-45,-52.5,-60,-6.25
654,3.75,-101.25,41.25,11.25,48.75,-56.25,-67.5,-75,-21.666666666666668
655,33.75,-67.5,45,18.75,60,-48.75,-60,-67.5,-9.583333333333334
656,105,0,67.5,37.5,75,-37.5,-41.25,-48.75,17.5
657,97.5,-3.75,67.5,33.75,71.25,-37.5,-41.25,-52.5,15.0
658,67.5,-33.75,56.25,18.75,56.25,-45,-52.5,-63.75,0.4166666666666667
659,56.25,-48.75,56.25,15,56.25,-52.5,-67.5,-71.25,-6.25
660,45,-60,52.5,7.5,48.75,-60,-71.25,-75,-12.5
661,37.5,-60,52.5,3.75,48.75,-56.25,-67.5,-75,-12.916666666666666
662,41.25,-67.5,52.5,0,45,-56.25,-67.5,-75,-14.166666666666666
663,37.5,-86.25,45,-15,33.75,-67.5,-75,-86.25,-23.75
664,11.25,-105,41.25,-18.75,30,-75,-82.5,-93.75,-32.5
665,15,-93.75,41.25,-18.75,30,-71.25,-82.5,-93.75,-30.416666666666668
666,41.25,-63.75,60,-3.75,41.25,-63.75,-75,-86.25,-16.666666666666668
667,45,-56.25,56.25,0,45,-63.75,-75,-86.25,-15.0
668,41.25,-67.5,37.5,-7.5,37.5,-71.25,-78.75,-90,-22.083333333333332
669,18.75,-90,33.75,-18.75,30,-78.75,-86.25,-93.75,-31.666666666666668
670,-7.5,-112.5,26.25,-30,22.5,-82.5,-90,-101.25,-41.666666666666664
671,7.5,-108.75,22.5,-33.75,18.75,-82.5,-90,-101.25,-40.833333333333336
672,45,-82.5,33.75,-26.25,26.25,-78.75,-86.25,-97.5,-29.583333333333332
673,37.5,-82.5,37.5,-30,26.25,-78.75,-90,-97.5,-30.833333333333332
674,18.75,-97.5,37.5,-33.75,18.75,-86.25,-90,-105,-37.5
675,26.25,-97.5,37.5,-33.75,22.5,-82.5,-93.75,-105,-36.25
676,-7.5,-101.25,41.25,-26.25,30,-75,-86.25,-101.25,-36.25
677,-63.75,-112.5,52.5,-15,37.5,-71.25,-78.75,-90,-37.916666666666664
678,-30,-112.5,41.25,-26.25,26.25,-82.5,-90,-105,-42.083333333333336
679,11.25,-112.5,18.75,-41.25,7.5,-101.25,-108.75,-120,-49.583333333333336
680,-22.5,-127.5,18.75,-41.25,11.25,-97.5,-108.75,-116.25,-53.75
681,-7.5,-105,26.25,-33.75,22.5,-90,-101.25,-105,-43.75
682,30,-82.5,30,-26.25,26.25,-86.25,-97.5,-101.25,-34.166666666666664
683,11.25,-105,30,-33.75,22.5,-86.25,-93.75,-101.25,-39.583333333333336
684,-18.75,-138.75,15,-48.75,7.5,-97.5,-101.25,-112.5,-55.0
685,22.5,-108.75,22.5,-41.25,18.75,-86.25,-93.75,-108.75,-41.666666666666664
686,71.25,-60,41.25,-22.5,37.5,-67.5,-78.75,-97.5,-19.583333333333332
687,22.5,-78.75,48.75,-18.75,37.5,-63.75,-75,-93.75,-24.583333333333332
688,-30,-101.25,48.75,-18.75,41.25,-63.75,-75,-93.75,-32.5
689,-18.75,-101.25,45,-22.5,37.5,-67.5,-78.75,-97.5,-33.75
690,-3.75,-97.5,37.5,-26.25,30,-75,-82.5,-101.25,-35.416666666666664
691,0,-82.5,41.25,-15,41.25,-71.25,-82.5,-97.5,-29.583333333333332
692,0,-82.5,41.25,-11.25,41.25,-71.25,-82.5,-93.75,-28.75
693,3.75,-93.75,33.75,-22.5,33.75,-71.25,-86.25,-97.5,-33.333333333333336
694,7.5,-105,30,-26.25,30,-75,-90,-101.25,-36.666666666666664
695,-11.25,-127.5,15,-37.5,18.75,-86.25,-93.75,-105,-47.5
696,-30,-138.75,7.5,-41.25,15,-90,-97.5,-108.75,-53.75
697,-22.5,-135,11.25,-45,18.75,-82.5,-97.5,-112.5,-51.666666666666664
698,-11.25,-127.5,15,-41.25,22.5,-75,-90,-108.75,-46.25
699,15,-93.75,30,-26.25,33.75,-71.25,-82.5,-101.25,-32.916666666666664
700,3.75,-97.5,37.5,-22.5,37.5,-63.75,-78.75,-97.5,-31.25
701,-22.5,-123.75,22.5,-30,30,-75,-86.25,-105,-43.333333333333336
702,-15,-108.75,26.25,-22.5,33.75,-67.5,-78.75,-97.5,-36.666666666666664
703,0,-90,30,-15,41.25,-63.75,-75,-93.75,-29.583333333333332
704,26.25,-75,30,-11.25,45,-63.75,-75,-86.25,-23.333333333333332
705,30,-78.75,26.25,-15,41.25,-63.75,-75,-86.25,-24.583333333333332
706,3.75,-97.5,22.5,-15,41.25,-60,-75,-90,-30.0
707,15,-97.5,22.5,-18.75,37.5,-67.5,-78.75,-93.75,-31.25
708,18.75,-97.5,15,-26.25,30,-71.25,-78.75,-93.75,-33.75
709,-18.75,-127.5,11.25,-33.75,26.25,-78.75,-90,-101.25,-45.833333333333336
710,-45,-135,15,-30,30,-78.75,-93.75,-101.25,-48.75
711,-33.75,-108.75,30,-15,45,-60,-75,-86.25,-33.75
712,-7.5,-90,33.75,-15,45,-56.25,-67.5,-90,-27.5
713,0,-93.75,33.75,-18.75,41.25,-60,-71.25,-93.75,-29.166666666666668
714,-7.5,-97.5,33.75,-11.25,45,-56.25,-71.25,-90,-28.333333333333332
715,-7.5,-93.75,30,-11.25,45,-56.25,-71.25,-86.25,-27.916666666666668
716,-7.5,-97.5,22.5,-18.75,41.25,-63.75,-75,-90,-32.083333333333336
717,-7.5,-101.25,18.75,-22.5,33.75,-67.5,-78.75,-90,-35.0
718,-15,-105,18.75,-22.5,37.5,-63.75,-75,-86.25,-34.583333333333336
719,-11.25,-108.75,15,-26.25,33.75,-63.75,-78.75,-86.25,-36.25
720,0,-108.75,11.25,-33.75,30,-71.25,-82.5,-93.75,-38.75
721,-18.75,-131.25,0,-45,18.75,-78.75,-93.75,-101.25,-50.0
722,-45,-142.5,7.5,-45,22.5,-75,-90,-101.25,-52.083333333333336
723,-67.5,-127.5,30,-22.5,45,-52.5,-67.5,-78.75,-37.916666666666664
724,-67.5,-131.25,22.5,-22.5,41.25,-56.25,-71.25,-82.5,-40.833333333333336
725,-18.75,-120,15,-33.75,30,-71.25,-82.5,-93.75,-41.666666666666664
726,26.25,-90,11.25,-33.75,33.75,-71.25,-82.5,-93.75,-33.333333333333336
727,15,-93.75,11.25,-30,33.75,-71.25,-82.5,-90,-34.166666666666664
728,3.75,-101.25,11.25,-30,30,-78.75,-86.25,-90,-37.916666666666664
729,11.25,-105,3.75,-37.5,26.25,-82.5,-90,-90,-40.416666666666664
730,-3.75,-131.25,-11.25,-52.5,11.25,-93.75,-101.25,-101.25,-53.75
731,-15,-127.5,-3.75,-45,18.75,-82.5,-90,-90,-48.333333333333336
732,-48.75,-116.25,15,-33.75,37.5,-60,-71.25,-75,-39.166666666666664
733,-78.75,-153.75,0,-48.75,22.5,-75,-82.5,-90,-56.25
734,-18.75,-142.5,-3.75,-56.25,15,-82.5,-90,-97.5,-52.916666666666664
735,45,-82.5,15,-41.25,30,-63.75,-71.25,-82.5,-27.916666666666668
736,22.5,-90,11.25,-41.25,26.25,-67.5,-75,-82.5,-32.916666666666664
737,-3.75,-105,7.5,-48.75,22.5,-75,-82.5,-90,-41.666666666666664
738,-7.5,-93.75,11.25,-45,26.25,-75,-82.5,-86.25,-39.166666666666664
739,-11.25,-86.25,15,-37.5,33.75,-71.25,-78.75,-82.5,-35.416666666666664
740,-11.25,-97.5,7.5,-37.5,30,-71.25,-78.75,-82.5,-37.916666666666664
741,-15,-120,0,-48.75,22.5,-82.5,-90,-90,-47.083333333333336
742,0,-116.25,0,-48.75,22.5,-78.75,-82.5,-82.5,-42.916666666666664
743,0,-101.25,3.75,-48.75,22.5,-75,-78.75,-82.5,-40.0
744,-11.25,-105,3.75,-48.75,22.5,-78.75,-82.5,-86.25,-42.916666666666664
745,-11.25,-120,-7.5,-60,11.25,-86.25,-93.75,-93.75,-51.25
746,-11.25,-131.25,-18.75,-71.25,3.75,-90,-97.5,-101.25,-57.5
747,-30,-138.75,-15,-71.25,0,-90,-93.75,-105,-60.416666666666664
748,-37.5,-131.25,-3.75,-67.5,3.75,-90,-93.75,-101.25,-57.916666666666664
749,-15,-123.75,-3.75,-67.5,7.5,-90,-93.75,-101.25,-54.166666666666664
750,11.25,-112.5,-7.5,-67.5,7.5,-86.25,-93.75,-101.25,-50.0
751,11.25,-108.75,-7.5,-60,11.25,-86.25,-90,-93.75,-47.083333333333336
752,-18.75,-116.25,-3.75,-60,11.25,-86.25,-86.25,-90,-50.0
753,-37.5,-131.25,-11.25,-67.5,3.75,-90,-90,-90,-57.083333333333336
754,-33.75,-153.75,-30,-86.25,-11.25,-105,-105,-105,-70.0
755,-30,-153.75,-26.25,-82.5,-7.5,-101.25,-105,-108.75,-68.33333333333333
756,-37.5,-157.5,-22.5,-82.5,-7.5,-105,-108.75,-108.75,-70.0
757,-45,-168.75,-30,-90,-15,-108.75,-112.5,-116.25,-76.25
758,-30,-150,-18.75,-86.25,-11.25,-101.25,-105,-108.75,-67.91666666666667
759,0,-112.5,-3.75,-71.25,3.75,-90,-93.75,-97.5,-51.666666666666664
760,7.5,-105,-3.75,-71.25,7.5,-90,-93.75,-97.5,-49.583333333333336
761,-26.25,-135,-18.75,-82.5,-7.5,-101.25,-105,-108.75,-65.0
762,-52.5,-131.25,-11.25,-71.25,0,-97.5,-97.5,-101.25,-62.5
763,-33.75,-97.5,0,-60,11.25,-90,-90,-90,-50.0
764,-3.75,-105,-15,-75,-3.75,-101.25,-101.25,-101.25,-56.25
765,-7.5,-127.5,-30,-90,-15,-112.5,-112.5,-108.75,-67.08333333333333
766,-26.25,-127.5,-18.75,-78.75,-7.5,-101.25,-101.25,-101.25,-62.5
767,-7.5,-116.25,-18.75,-78.75,-7.5,-101.25,-101.25,-97.5,-58.75
768,7.5,-112.5,-22.5,-82.5,-7.5,-101.25,-97.5,-97.5,-57.083333333333336
769,-7.5,-135,-30,-93.75,-15,-108.75,-101.25,-105,-66.25
770,-37.5,-168.75,-33.75,-101.25,-22.5,-116.25,-116.25,-116.25,-79.16666666666667
771,-30,-153.75,-26.25,-97.5,-18.75,-108.75,-108.75,-108.75,-72.5
772,-3.75,-120,-18.75,-90,-11.25,-101.25,-101.25,-101.25,-60.833333333333336
773,-18.75,-131.25,-18.75,-90,-11.25,-108.75,-108.75,-105,-65.83333333333333
774,-41.25,-142.5,-18.75,-86.25,-11.25,-105,-108.75,-105,-68.75
775,-26.25,-131.25,-22.5,-82.5,-11.25,-108.75,-105,-105,-65.83333333333333
776,-18.75,-135,-30,-90,-18.75,-112.5,-112.5,-108.75,-69.58333333333333
777,-33.75,-142.5,-30,-97.5,-22.5,-116.25,-116.25,-112.5,-74.58333333333333
778,-37.5,-142.5,-30,-97.5,-22.5,-120,-120,-112.5,-75.83333333333333
779,-33.75,-146.25,-37.5,-97.5,-26.25,-120,-120,-112.5,-77.08333333333333
780,-45,-150,-30,-93.75,-22.5,-116.25,-120,-112.5,-76.66666666666667
781,-63.75,-157.5,-30,-97.5,-26.25,-116.25,-120,-112.5,-80.41666666666667
782,-60,-168.75,-33.75,-105,-30,-120,-123.75,-120,-84.58333333333333
783,-75,-187.5,-37.5,-108.75,-37.5,-123.75,-127.5,-123.75,-91.25
784,-116.25,-225,-52.5,-120,-45,-135,-135,-131.25,-106.66666666666667
785,-105,-221.25,-56.25,-123.75,-48.75,-142.5,-142.5,-135,-108.33333333333333
786,-7.5,-116.25,-18.75,-86.25,-15,-105,-105,-97.5,-61.25
787,45,-52.5,0,-60,15,-78.75,-78.75,-71.25,-31.25
788,0,-105,-22.5,-82.5,-7.5,-101.25,-101.25,-93.75,-57.083333333333336
789,-22.5,-142.5,-41.25,-105,-30,-123.75,-120,-112.5,-77.5
790,-26.25,-153.75,-48.75,-112.5,-37.5,-131.25,-127.5,-116.25,-83.75
791,-41.25,-150,-37.5,-105,-26.25,-120,-120,-108.75,-78.75
792,-52.5,-142.5,-26.25,-93.75,-18.75,-112.5,-112.5,-101.25,-73.33333333333333
793,-56.25,-153.75,-26.25,-97.5,-22.5,-120,-120,-108.75,-78.33333333333333
794,-41.25,-168.75,-41.25,-112.5,-33.75,-127.5,-123.75,-120,-85.41666666666667
795,-18.75,-165,-45,-120,-37.5,-127.5,-123.75,-120,-84.16666666666667
796,-11.25,-142.5,-33.75,-108.75,-30,-116.25,-116.25,-112.5,-74.58333333333333
797,-37.5,-146.25,-26.25,-101.25,-22.5,-112.5,-116.25,-116.25,-75.41666666666667
798,-60,-157.5,-33.75,-105,-22.5,-112.5,-112.5,-120,-80.41666666666667
799,-41.25,-138.75,-37.5,-101.25,-22.5,-116.25,-116.25,-116.25,-76.66666666666667
800,-30,-135,-37.5,-101.25,-22.5,-120,-120,-116.25,-75.83333333333333
801,-37.5,-146.25,-37.5,-101.25,-26.25,-123.75,-123.75,-116.25,-79.16666666666667
802,-41.25,-153.75,-41.25,-108.75,-30,-123.75,-123.75,-116.25,-82.08333333333333
803,-30,-153.75,-45,-108.75,-33.75,-123.75,-123.75,-120,-82.08333333333333
804,-26.25,-150,-45,-112.5,-33.75,-123.75,-123.75,-120,-81.66666666666667
805,-60,-157.5,-37.5,-108.75,-26.25,-116.25,-120,-116.25,-82.5
806,-78.75,-157.5,-30,-105,-22.5,-112.5,-112.5,-108.75,-80.83333333333333
807,-45,-157.5,-37.5,-112.5,-30,-123.75,-123.75,-116.25,-82.91666666666667
808,-37.5,-165,-45,-120,-37.5,-131.25,-131.25,-127.5,-88.33333333333333
809,-37.5,-157.5,-41.25,-112.5,-30,-123.75,-123.75,-120,-82.91666666666667
810,-45,-157.5,-41.25,-108.75,-30,-127.5,-123.75,-120,-83.75
811,-56.25,-161.25,-37.5,-105,-30,-127.5,-123.75,-120,-84.58333333333333
812,-33.75,-138.75,-33.75,-97.5,-22.5,-120,-120,-108.75,-75.0
813,-30,-131.25,-33.75,-97.5,-18.75,-116.25,-112.5,-105,-71.66666666666667
814,-52.5,-150,-37.5,-105,-26.25,-123.75,-120,-112.5,-80.83333333333333
815,-60,-165,-45,-112.5,-33.75,-127.5,-127.5,-120,-87.91666666666667
816,-56.25,-157.5,-45,-108.75,-30,-123.75,-123.75,-116.25,-84.58333333333333
817,-48.75,-142.5,-33.75,-101.25,-22.5,-116.25,-116.25,-112.5,-77.08333333333333
818,-30,-138.75,-33.75,-105,-26.25,-116.25,-116.25,-116.25,-75.83333333333333
819,-30,-138.75,-30,-105,-26.25,-120,-120,-116.25,-76.25
820,-33.75,-135,-26.25,-101.25,-18.75,-116.25,-116.25,-108.75,-72.91666666666667
821,-33.75,-135,-30,-101.25,-18.75,-112.5,-112.5,-108.75,-72.5
822,-26.25,-127.5,-30,-97.5,-18.75,-116.25,-112.5,-108.75,-70.83333333333333
823,-41.25,-135,-33.75,-97.5,-22.5,-123.75,-120,-112.5,-76.25
824,-67.5,-161.25,-45,-105,-33.75,-131.25,-127.5,-123.75,-88.33333333333333
825,-48.75,-157.5,-48.75,-108.75,-33.75,-135,-131.25,-123.75,-87.5
826,-22.5,-138.75,-41.25,-101.25,-26.25,-123.75,-123.75,-112.5,-76.66666666666667
827,-33.75,-135,-37.5,-101.25,-26.25,-120,-120,-112.5,-76.25
828,-37.5,-135,-37.5,-101.25,-22.5,-116.25,-120,-108.75,-75.41666666666667
829,-22.5,-131.25,-37.5,-101.25,-22.5,-116.25,-116.25,-108.75,-72.91666666666667
830,-26.25,-123.75,-26.25,-97.5,-18.75,-112.5,-108.75,-105,-68.75
831,-22.5,-112.5,-26.25,-93.75,-15,-108.75,-105,-105,-65.41666666666667
832,-11.25,-101.25,-18.75,-82.5,-7.5,-101.25,-97.5,-97.5,-57.5
833,-7.5,-101.25,-15,-82.5,-7.5,-105,-105,-101.25,-58.333333333333336
834,-45,-127.5,-18.75,-86.25,-11.25,-112.5,-112.5,-108.75,-69.16666666666667
835,-60,-112.5,-7.5,-71.25,0,-101.25,-97.5,-93.75,-60.416666666666664
836,-22.5,-67.5,3.75,-60,11.25,-93.75,-90,-82.5,-44.583333333333336
837,-48.75,-93.75,0,-67.5,3.75,-97.5,-93.75,-90,-54.166666666666664
838,-82.5,-105,11.25,-60,11.25,-90,-86.25,-82.5,-53.75
839,-15,-60,22.5,-48.75,18.75,-86.25,-82.5,-75,-36.25
840,7.5,-71.25,11.25,-60,7.5,-93.75,-93.75,-90,-42.5
841,-18.75,-101.25,3.75,-63.75,3.75,-97.5,-97.5,-93.75,-51.666666666666664
842,-26.25,-116.25,3.75,-67.5,0,-101.25,-101.25,-101.25,-56.666666666666664
843,-18.75,-112.5,11.25,-63.75,7.5,-97.5,-97.5,-97.5,-52.083333333333336
844,-18.75,-93.75,22.5,-52.5,15,-90,-93.75,-93.75,-45.0
845,-11.25,-75,33.75,-45,18.75,-82.5,-86.25,-90,-37.5
846,-22.5,-67.5,33.75,-41.25,26.25,-78.75,-78.75,-78.75,-34.166666666666664
847,-60,-60,52.5,-18.75,48.75,-60,-60,-56.25,-23.75
848,-56.25,-60,48.75,-18.75,45,-60,-60,-52.5,-23.75
849,-26.25,-75,15,-48.75,18.75,-86.25,-82.5,-78.75,-40.416666666666664
850,-26.25,-78.75,7.5,-56.25,15,-86.25,-86.25,-78.75,-43.333333333333336
851,-18.75,-67.5,3.75,-52.5,18.75,-86.25,-86.25,-71.25,-40.0
852,7.5,-52.5,-3.75,-52.5,22.5,-75,-78.75,-67.5,-33.333333333333336
853,15,-60,-22.5,-63.75,18.75,-71.25,-71.25,-67.5,-35.833333333333336
854,-3.75,-71.25,-33.75,-71.25,15,-67.5,-67.5,-63.75,-40.416666666666664
855,-7.5,-63.75,-30,-67.5,18.75,-63.75,-63.75,-60,-37.5
856,26.25,-52.5,-33.75,-67.5,18.75,-71.25,-71.25,-67.5,-35.416666666666664
857,33.75,-60,-45,-75,11.25,-78.75,-78.75,-75,-40.833333333333336
858,30,-56.25,-45,-75,7.5,-78.75,-78.75,-71.25,-40.833333333333336
859,56.25,-41.25,-52.5,-78.75,3.75,-86.25,-78.75,-71.25,-38.75
860,67.5,-60,-71.25,-97.5,-15,-101.25,-93.75,-82.5,-50.416666666666664
861,37.5,-78.75,-75,-105,-18.75,-105,-97.5,-90,-59.166666666666664
862,-37.5,-82.5,-52.5,-86.25,0,-82.5,-75,-67.5,-53.75
863,-56.25,-78.75,-41.25,-82.5,7.5,-78.75,-71.25,-60,-51.25
864,22.5,-82.5,-63.75,-108.75,-22.5,-108.75,-101.25,-86.25,-61.25
865,37.5,-116.25,-82.5,-135,-48.75,-142.5,-135,-116.25,-82.08333333333333
866,0,-131.25,-67.5,-123.75,-37.5,-123.75,-120,-108.75,-79.16666666666667
867,15,-90,-41.25,-93.75,-3.75,-90,-86.25,-82.5,-52.5
868,26.25,-71.25,-30,-82.5,3.75,-82.5,-78.75,-75,-43.333333333333336
869,3.75,-101.25,-37.5,-93.75,-11.25,-93.75,-93.75,-90,-57.5
870,-15,-108.75,-45,-105,-18.75,-105,-101.25,-97.5,-66.25
871,-18.75,-97.5,-45,-101.25,-15,-105,-97.5,-97.5,-64.16666666666667
872,7.5,-82.5,-45,-101.25,-18.75,-112.5,-105,-101.25,-62.083333333333336
873,0,-97.5,-52.5,-112.5,-30,-123.75,-112.5,-108.75,-70.83333333333333
874,-22.5,-120,-56.25,-116.25,-33.75,-123.75,-120,-112.5,-78.33333333333333
875,-3.75,-108.75,-52.5,-116.25,-30,-120,-116.25,-108.75,-72.91666666666667
876,3.75,-101.25,-41.25,-112.5,-30,-123.75,-116.25,-108.75,-70.0
877,-7.5,-120,-52.5,-120,-41.25,-135,-127.5,-120,-80.41666666666667
878,-26.25,-150,-63.75,-138.75,-52.5,-146.25,-138.75,-135,-94.58333333333333
879,-60,-180,-67.5,-146.25,-60,-153.75,-150,-142.5,-106.66666666666667
880,-71.25,-183.75,-63.75,-142.5,-63.75,-153.75,-150,-146.25,-108.33333333333333
881,-71.25,-180,-63.75,-142.5,-60,-150,-146.25,-146.25,-106.66666666666667
882,-30,-123.75,-48.75,-120,-41.25,-135,-127.5,-127.5,-83.75
883,-11.25,-82.5,-30,-97.5,-18.75,-112.5,-108.75,-105,-62.916666666666664
884,-41.25,-116.25,-45,-112.5,-33.75,-127.5,-123.75,-116.25,-79.58333333333333
885,-30,-142.5,-56.25,-131.25,-52.5,-146.25,-142.5,-135,-92.91666666666667
886,-3.75,-138.75,-63.75,-138.75,-56.25,-153.75,-146.25,-142.5,-93.75
887,-11.25,-131.25,-56.25,-131.25,-48.75,-142.5,-131.25,-131.25,-87.08333333333333
888,-33.75,-142.5,-60,-131.25,-48.75,-138.75,-127.5,-131.25,-90.41666666666667
889,-30,-161.25,-71.25,-146.25,-67.5,-153.75,-146.25,-142.5,-102.08333333333333
890,-18.75,-157.5,-71.25,-146.25,-67.5,-153.75,-146.25,-146.25,-100.83333333333333
891,-33.75,-150,-60,-138.75,-56.25,-142.5,-138.75,-135,-95.0
892,-63.75,-146.25,-48.75,-123.75,-41.25,-131.25,-127.5,-127.5,-90.0
893,-60,-138.75,-45,-120,-41.25,-127.5,-123.75,-127.5,-87.08333333333333
894,-30,-120,-45,-116.25,-37.5,-127.5,-123.75,-123.75,-80.41666666666667
895,-26.25,-108.75,-45,-116.25,-37.5,-127.5,-123.75,-123.75,-78.75
896,-48.75,-135,-56.25,-123.75,-48.75,-142.5,-131.25,-131.25,-90.83333333333333
897,-60,-157.5,-67.5,-138.75,-60,-150,-142.5,-138.75,-101.66666666666667
898,-56.25,-161.25,-63.75,-135,-56.25,-150,-142.5,-135,-100.0
899,-63.75,-161.25,-60,-135,-56.25,-150,-142.5,-138.75,-100.83333333333333
900,-33.75,-135,-52.5,-127.5,-52.5,-146.25,-138.75,-131.25,-90.83333333333333
901,-26.25,-135,-48.75,-127.5,-52.5,-138.75,-131.25,-127.5,-87.5
902,-75,-172.5,-52.5,-131.25,-52.5,-138.75,-135,-135,-99.16666666666667
903,-71.25,-165,-41.25,-120,-45,-131.25,-131.25,-135,-93.33333333333333
904,-33.75,-142.5,-18.75,-101.25,-33.75,-127.5,-131.25,-138.75,-80.83333333333333
905,-37.5,-165,3.75,-75,-37.5,-146.25,-150,-161.25,-85.41666666666667
906,-41.25,-187.5,48.75,-37.5,-30,-161.25,-176.25,-183.75,-85.41666666666667
907,-22.5,-191.25,97.5,3.75,-30,-187.5,-206.25,-217.5,-83.75
908,-3.75,-202.5,146.25,41.25,-30,-210,-232.5,-247.5,-82.08333333333333
909,0,-217.5,180,63.75,-33.75,-228.75,-255,-266.25,-84.16666666666667
910,0,-206.25,213.75,116.25,-7.5,-213.75,-243.75,-255,-66.25
911,7.5,-176.25,247.5,183.75,48.75,-172.5,-217.5,-228.75,-34.166666666666664
912,15,-150,277.5,255,105,-127.5,-180,-198.75,-0.4166666666666667
913,37.5,-116.25,300,311.25,161.25,-78.75,-131.25,-157.5,36.25
914,123.75,-22.5,322.5,371.25,232.5,0,-56.25,-90,97.91666666666667
915,191.25,71.25,341.25,431.25,307.5,82.5,26.25,-15,159.58333333333334
916,221.25,123.75,337.5,472.5,367.5,153.75,101.25,56.25,203.75
917,307.5,210,315,521.25,446.25,247.5,202.5,153.75,267.0833333333333
918,401.25,348.75,296.25,577.5,547.5,375,330,277.5,350.4166666666667
919,446.25,487.5,266.25,603.75,645,506.25,472.5,420,427.5
920,480,600,187.5,588.75,727.5,633.75,611.25,558.75,487.5
921,532.5,757.5,153.75,630,851.25,798.75,783.75,720,580.8333333333334
922,592.5,978.75,157.5,693.75,993.75,986.25,982.5,911.25,699.5833333333334
923,637.5,1218.75,75,667.5,1087.5,1158.75,1188.75,1128.75,795.8333333333334
924,652.5,1410,-63.75,581.25,1147.5,1316.25,1391.25,1331.25,862.9166666666666
925,675,1500,-195,465,1185,1436.25,1533.75,1473.75,897.0833333333334
926,712.5,1552.5,-337.5,285,1173.75,1515,1631.25,1575,900.8333333333334
927,675,1575,-412.5,172.5,1192.5,1601.25,1725,1650,908.75
928,577.5,1518.75,-397.5,187.5,1260,1668.75,1762.5,1650,914.1666666666666
929,502.5,1458.75,-371.25,191.25,1312.5,1710,1773.75,1620,910.8333333333334
930,431.25,1417.5,-397.5,116.25,1297.5,1698.75,1747.5,1578.75,876.6666666666666
931,330,1290,-450,-15,1188.75,1575,1616.25,1455,776.6666666666666
932,206.25,1065,-468.75,-142.5,1005,1335,1372.5,1230,622.5
933,90,855,-431.25,-232.5,798.75,1057.5,1087.5,978.75,467.0833333333333
934,30,701.25,-412.5,-356.25,536.25,746.25,798.75,746.25,310.0
935,-30,547.5,-438.75,-528.75,232.5,420,513.75,521.25,137.5
936,-135,367.5,-468.75,-686.25,-22.5,150,270,322.5,-22.5
937,-232.5,168.75,-468.75,-742.5,-165,-26.25,82.5,142.5,-137.91666666666666
938,-266.25,11.25,-453.75,-723.75,-206.25,-120,-45,-3.75,-200.83333333333334
939,-228.75,-18.75,-435,-663.75,-183.75,-127.5,-78.75,-56.25,-199.16666666666666
940,-187.5,11.25,-412.5,-585,-127.5,-90,-56.25,-48.75,-166.25
941,-191.25,-7.5,-397.5,-513.75,-90,-63.75,-37.5,-41.25,-149.16666666666666
942,-187.5,-37.5,-378.75,-465,-86.25,-67.5,-41.25,-41.25,-145.0
943,-127.5,-18.75,-337.5,-416.25,-86.25,-78.75,-45,-41.25,-127.91666666666667
944,-78.75,-3.75,-296.25,-360,-71.25,-75,-45,-41.25,-107.91666666666667
945,-75,-15,-262.5,-307.5,-48.75,-63.75,-37.5,-37.5,-94.16666666666667
946,-67.5,-7.5,-232.5,-251.25,-15,-48.75,-26.25,-26.25,-75.0
947,-37.5,11.25,-198.75,-191.25,22.5,-22.5,-11.25,-15,-49.166666666666664
948,-15,0,-168.75,-146.25,48.75,-7.5,-3.75,-15,-34.166666666666664
949,-11.25,-15,-123.75,-105,75,7.5,3.75,-11.25,-20.0
950,-11.25,-22.5,-97.5,-78.75,86.25,11.25,3.75,-15,-13.75
951,11.25,-7.5,-67.5,-56.25,97.5,15,7.5,-15,-1.6666666666666667
952,-3.75,-11.25,-45,-37.5,105,15,0,-18.75,0.4166666666666667
953,-33.75,-30,-37.5,-30,101.25,3.75,-7.5,-30,-7.083333333333333
954,-26.25,-41.25,-37.5,-33.75,86.25,-15,-22.5,-45,-15.0
955,-18.75,-56.25,-48.75,-41.25,75,-30,-41.25,-56.25,-24.166666666666668
956,3.75,-52.5,-41.25,-37.5,71.25,-37.5,-48.75,-63.75,-22.916666666666668
957,22.5,-41.25,-33.75,-33.75,71.25,-37.5,-45,-60,-17.5
958,0,-60,-33.75,-37.5,63.75,-41.25,-52.5,-63.75,-25.0
959,-15,-78.75,-37.5,-45,52.5,-52.5,-63.75,-75,-35.0
960,-18.75,-90,-45,-52.5,41.25,-67.5,-75,-90,-44.166666666666664
961,-22.5,-90,-41.25,-48.75,41.25,-67.5,-78.75,-93.75,-44.583333333333336
962,-18.75,-90,-33.75,-48.75,45,-63.75,-75,-93.75,-42.083333333333336
963,-3.75,-86.25,-33.75,-48.75,41.25,-67.5,-78.75,-97.5,-41.666666666666664
964,11.25,-78.75,-30,-45,41.25,-67.5,-78.75,-97.5,-38.333333333333336
965,0,-82.5,-26.25,-37.5,45,-63.75,-75,-90,-36.666666666666664
966,-30,-86.25,-18.75,-26.25,56.25,-60,-71.25,-86.25,-35.833333333333336
967,-37.5,-82.5,-15,-22.5,56.25,-63.75,-75,-82.5,-35.833333333333336
968,-11.25,-86.25,-30,-33.75,41.25,-75,-78.75,-90,-40.416666666666664
969,15,-82.5,-37.5,-45,30,-82.5,-86.25,-97.5,-42.916666666666664
970,7.5,-78.75,-33.75,-37.5,37.5,-78.75,-86.25,-93.75,-40.416666666666664
971,-3.75,-86.25,-33.75,-37.5,37.5,-75,-82.5,-97.5,-42.083333333333336
972,-15,-108.75,-41.25,-45,30,-78.75,-90,-105,-50.416666666666664
973,-26.25,-131.25,-48.75,-56.25,18.75,-93.75,-105,-120,-62.5
974,0,-116.25,-41.25,-52.5,26.25,-90,-101.25,-116.25,-54.583333333333336
975,15,-71.25,-18.75,-30,48.75,-63.75,-82.5,-93.75,-32.916666666666664
976,-41.25,-78.75,-7.5,-15,67.5,-48.75,-63.75,-78.75,-29.583333333333332
977,-41.25,-101.25,-18.75,-22.5,56.25,-56.25,-67.5,-86.25,-37.5
978,15,-86.25,-30,-26.25,48.75,-67.5,-78.75,-93.75,-35.416666666666664
979,26.25,-63.75,-30,-18.75,56.25,-63.75,-71.25,-86.25,-27.916666666666668
980,33.75,-67.5,-37.5,-22.5,52.5,-63.75,-75,-86.25,-29.583333333333332
981,48.75,-75,-41.25,-26.25,52.5,-63.75,-75,-90,-30.0
982,45,-71.25,-37.5,-22.5,56.25,-63.75,-67.5,-86.25,-27.5
983,22.5,-86.25,-41.25,-26.25,52.5,-63.75,-71.25,-90,-33.75
984,22.5,-90,-45,-26.25,52.5,-63.75,-71.25,-90,-34.583333333333336
985,22.5,-90,-45,-26.25,56.25,-60,-67.5,-86.25,-32.916666666666664
986,-30,-135,-56.25,-33.75,48.75,-67.5,-78.75,-97.5,-50.0
987,-45,-146.25,-56.25,-37.5,45,-71.25,-82.5,-101.25,-55.0
988,15,-75,-26.25,-7.5,71.25,-41.25,-52.5,-75,-21.25
989,75,-15,-11.25,11.25,90,-26.25,-41.25,-60,2.5
990,56.25,-26.25,-15,11.25,90,-30,-41.25,-63.75,-2.0833333333333335
991,33.75,-41.25,-26.25,11.25,86.25,-37.5,-52.5,-71.25,-10.833333333333334
992,37.5,-56.25,-37.5,0,75,-45,-60,-75,-17.916666666666668
993,41.25,-63.75,-41.25,-3.75,75,-45,-60,-75,-19.166666666666668
994,48.75,-56.25,-37.5,0,78.75,-37.5,-48.75,-67.5,-13.333333333333334
995,63.75,-45,-37.5,3.75,86.25,-26.25,-37.5,-60,-5.833333333333333
996,60,-52.5,-41.25,3.75,86.25,-26.25,-41.25,-60,-7.916666666666667
997,56.25,-56.25,-41.25,3.75,86.25,-30,-45,-63.75,-10.0
998,60,-52.5,-33.75,7.5,90,-22.5,-37.5,-60,-5.416666666666667
999,52.5,-52.5,-37.5,3.75,90,-26.25,-41.25,-63.75,-8.333333333333334
1000,26.25,-63.75,-33.75,11.25,93.75,-22.5,-37.5,-63.75,-10.0
1001,30,-56.25,-26.25,18.75,101.25,-11.25,-22.5,-52.5,-2.0833333333333335
1002,67.5,-15,-11.25,41.25,120,3.75,-15,-33.75,17.5
1003,67.5,-15,-15,41.25,116.25,-3.75,-22.5,-41.25,14.166666666666666
1004,30,-52.5,-33.75,26.25,105,-18.75,-33.75,-56.25,-3.75
1005,48.75,-45,-33.75,30,108.75,-7.5,-26.25,-48.75,2.9166666666666665
1006,90,-22.5,-30,33.75,112.5,-7.5,-26.25,-45,11.666666666666666
1007,63.75,-37.5,-26.25,33.75,112.5,-7.5,-26.25,-41.25,7.916666666666667
1008,33.75,-56.25,-33.75,33.75,112.5,-7.5,-22.5,-41.25,2.0833333333333335
1009,71.25,-33.75,-30,37.5,120,3.75,-15,-33.75,13.333333333333334
1010,82.5,-30,-26.25,37.5,120,7.5,-15,-33.75,15.833333333333334
1011,67.5,-41.25,-33.75,33.75,116.25,0,-22.5,-45,8.333333333333334
1012,93.75,-15,-30,41.25,123.75,7.5,-15,-37.5,18.75
1013,97.5,-11.25,-26.25,48.75,135,15,-3.75,-26.25,25.416666666666668
1014,90,-7.5,-26.25,52.5,138.75,18.75,0,-22.5,27.083333333333332
1015,112.5,22.5,-26.25,63.75,146.25,26.25,7.5,-15,37.5
1016,101.25,22.5,-26.25,63.75,146.25,30,11.25,-7.5,37.916666666666664
1017,97.5,15,-30,60,146.25,30,15,-7.5,36.25
1018,127.5,11.25,-41.25,52.5,138.75,26.25,11.25,-11.25,35.0
1019,123.75,0,-45,48.75,135,18.75,3.75,-15,30.0
1020,105,-3.75,-41.25,56.25,138.75,26.25,7.5,-15,30.416666666666668
1021,105,-3.75,-37.5,56.25,142.5,26.25,7.5,-15,31.25
1022,108.75,-11.25,-41.25,52.5,138.75,22.5,0,-22.5,27.5
1023,108.75,-7.5,-41.25,56.25,142.5,26.25,7.5,-15,30.833333333333332
1024,120,11.25,-30,67.5,153.75,41.25,18.75,-3.75,42.083333333333336
1025,127.5,18.75,-30,71.25,150,37.5,18.75,-3.75,43.333333333333336
1026,131.25,22.5,-30,75,153.75,33.75,18.75,0,45.0
1027,116.25,11.25,-37.5,71.25,150,30,15,0,39.583333333333336
1028,105,0,-41.25,71.25,150,30,15,3.75,37.083333333333336
1029,120,11.25,-37.5,71.25,153.75,41.25,30,11.25,44.583333333333336
1030,116.25,3.75,-41.25,71.25,153.75,45,33.75,11.25,43.75
1031,123.75,7.5,-45,71.25,157.5,48.75,33.75,15,45.833333333333336
1032,138.75,18.75,-45,67.5,150,45,30,11.25,46.25
1033,142.5,18.75,-48.75,63.75,150,45,30,11.25,45.833333333333336
1034,135,11.25,-48.75,63.75,150,48.75,33.75,15,45.416666666666664
1035,138.75,15,-41.25,71.25,157.5,52.5,41.25,22.5,50.833333333333336
1036,138.75,22.5,-41.25,67.5,153.75,56.25,45,22.5,51.666666666666664
1037,127.5,11.25,-48.75,67.5,150,48.75,41.25,18.75,46.25
1038,138.75,22.5,-48.75,71.25,150,48.75,37.5,22.5,49.166666666666664
1039,176.25,60,-41.25,82.5,161.25,56.25,45,33.75,63.75
1040,183.75,63.75,-41.25,82.5,161.25,60,48.75,37.5,66.25
1041,138.75,18.75,-60,60,142.5,41.25,37.5,26.25,45.0
1042,97.5,-15,-71.25,48.75,131.25,30,30,18.75,30.0
1043,101.25,-11.25,-71.25,48.75,127.5,30,30,18.75,30.416666666666668
1044,142.5,15,-63.75,56.25,135,41.25,37.5,26.25,43.333333333333336
1045,187.5,45,-52.5,60,142.5,48.75,45,33.75,56.666666666666664
1046,180,37.5,-56.25,52.5,138.75,41.25,41.25,30,51.666666666666664
1047,168.75,37.5,-48.75,56.25,138.75,45,41.25,33.75,52.5
1048,183.75,67.5,-37.5,71.25,146.25,56.25,52.5,45,65.0
1049,195,71.25,-37.5,71.25,146.25,52.5,48.75,41.25,65.41666666666667
1050,180,56.25,-45,63.75,135,41.25,41.25,37.5,56.666666666666664
1051,172.5,52.5,-45,63.75,131.25,37.5,41.25,37.5,54.583333333333336
1052,153.75,30,-56.25,52.5,123.75,30,30,30,43.75
1053,146.25,15,-60,45,116.25,26.25,26.25,26.25,37.916666666666664
1054,150,11.25,-63.75,45,112.5,26.25,26.25,26.25,37.083333333333336
1055,138.75,15,-56.25,45,108.75,22.5,26.25,22.5,35.833333333333336
1056,123.75,11.25,-52.5,37.5,97.5,7.5,11.25,11.25,27.5
1057,127.5,7.5,-52.5,30,93.75,3.75,7.5,11.25,25.416666666666668
1058,131.25,3.75,-56.25,26.25,93.75,11.25,15,11.25,26.25
1059,127.5,3.75,-52.5,33.75,97.5,15,18.75,15,28.75
1060,120,3.75,-52.5,30,93.75,7.5,11.25,11.25,25.0
1061,116.25,3.75,-45,30,90,0,3.75,7.5,22.916666666666668
1062,146.25,37.5,-37.5,41.25,97.5,7.5,11.25,15,35.416666666666664
1063,142.5,56.25,-22.5,60,112.5,22.5,26.25,33.75,47.916666666666664
1064,82.5,41.25,-11.25,67.5,120,26.25,30,41.25,44.166666666666664
1065,63.75,0,-30,48.75,101.25,7.5,15,22.5,25.416666666666668
1066,93.75,-22.5,-52.5,18.75,71.25,-18.75,-15,-7.5,7.5
1067,93.75,-18.75,-41.25,22.5,71.25,-26.25,-22.5,-15,7.083333333333333
1068,71.25,-33.75,-37.5,18.75,67.5,-30,-30,-22.5,0.4166666666666667
1069,71.25,-41.25,-33.75,18.75,67.5,-30,-30,-26.25,-0.4166666666666667
1070,71.25,-30,-15,30,78.75,-18.75,-22.5,-18.75,8.333333333333334
1071,63.75,-30,-3.75,33.75,82.5,-18.75,-22.5,-22.5,9.166666666666666
1072,71.25,-26.25,-3.75,33.75,75,-30,-33.75,-30,6.25
1073,78.75,-22.5,-3.75,30,67.5,-41.25,-45,-37.5,2.9166666666666665
1074,63.75,-33.75,-7.5,30,67.5,-41.25,-41.25,-37.5,0.0
1075,41.25,-45,-7.5,33.75,67.5,-48.75,-52.5,-45,-6.25
1076,30,-60,-11.25,22.5,60,-60,-67.5,-56.25,-15.833333333333334
1077,11.25,-75,-11.25,18.75,52.5,-63.75,-71.25,-60,-22.083333333333332
1078,0,-75,-3.75,18.75,56.25,-63.75,-71.25,-60,-22.083333333333332
1079,30,-52.5,0,26.25,60,-60,-67.5,-60,-13.75
1080,41.25,-56.25,0,22.5,56.25,-63.75,-71.25,-67.5,-15.416666666666666
1081,-3.75,-97.5,-11.25,0,41.25,-78.75,-93.75,-86.25,-36.666666666666664
1082,-48.75,-138.75,-18.75,-11.25,30,-90,-105,-101.25,-53.75
1083,-48.75,-135,-15,-11.25,30,-86.25,-105,-101.25,-52.5
1084,0,-86.25,-3.75,0,41.25,-78.75,-93.75,-90,-34.583333333333336
1085,30,-60,3.75,11.25,52.5,-71.25,-86.25,-82.5,-22.5
1086,45,-45,11.25,18.75,56.25,-63.75,-78.75,-78.75,-15.0
1087,71.25,-30,15,22.5,60,-63.75,-78.75,-75,-8.75
1088,45,-52.5,3.75,7.5,48.75,-75,-90,-86.25,-22.083333333333332
1089,-7.5,-86.25,0,-3.75,41.25,-82.5,-97.5,-93.75,-36.666666666666664
1090,-15,-97.5,-7.5,-11.25,33.75,-93.75,-112.5,-105,-45.416666666666664
1091,-18.75,-97.5,-7.5,-11.25,33.75,-93.75,-116.25,-105,-46.25
1092,-26.25,-97.5,3.75,-15,30,-97.5,-116.25,-108.75,-47.5
1093,-26.25,-101.25,7.5,-15,26.25,-97.5,-112.5,-112.5,-47.916666666666664
1094,-30,-105,3.75,-22.5,22.5,-97.5,-116.25,-116.25,-51.25
1095,-30,-101.25,7.5,-18.75,30,-86.25,-108.75,-108.75,-46.25
1096,-33.75,-101.25,15,-18.75,30,-86.25,-105,-112.5,-45.833333333333336
1097,-37.5,-112.5,11.25,-22.5,22.5,-97.5,-116.25,-123.75,-52.916666666666664
1098,-48.75,-116.25,3.75,-26.25,18.75,-108.75,-127.5,-127.5,-59.166666666666664
1099,-63.75,-127.5,-7.5,-33.75,11.25,-116.25,-135,-135,-67.5
1100,-56.25,-127.5,-3.75,-33.75,11.25,-116.25,-135,-135,-66.25
1101,-41.25,-120,-3.75,-37.5,11.25,-116.25,-135,-131.25,-63.75
1102,-37.5,-105,-3.75,-33.75,15,-105,-123.75,-123.75,-57.5
1103,-30,-101.25,0,-37.5,18.75,-105,-123.75,-123.75,-55.833333333333336
1104,-45,-135,-11.25,-56.25,0,-127.5,-146.25,-146.25,-74.16666666666667
1105,-67.5,-157.5,-18.75,-63.75,-7.5,-131.25,-150,-150,-82.91666666666667
1106,-67.5,-153.75,-15,-67.5,-7.5,-127.5,-146.25,-150,-81.66666666666667
1107,-45,-131.25,-7.5,-60,-3.75,-123.75,-142.5,-146.25,-73.33333333333333
1108,-26.25,-116.25,-7.5,-60,0,-123.75,-142.5,-142.5,-68.75
1109,-45,-123.75,-15,-63.75,-7.5,-131.25,-146.25,-146.25,-75.41666666666667
1110,-82.5,-120,-3.75,-52.5,7.5,-120,-135,-135,-71.25
1111,-112.5,-112.5,7.5,-37.5,22.5,-105,-120,-120,-64.16666666666667
1112,-90,-120,0,-45,11.25,-112.5,-127.5,-127.5,-67.91666666666667
1113,-45,-127.5,-7.5,-63.75,-3.75,-127.5,-142.5,-142.5,-73.33333333333333
1114,-48.75,-138.75,-15,-67.5,-7.5,-131.25,-150,-146.25,-78.33333333333333
1115,-67.5,-142.5,-15,-71.25,-7.5,-127.5,-142.5,-146.25,-80.0
1116,-63.75,-153.75,-26.25,-82.5,-18.75,-138.75,-157.5,-157.5,-88.75
1117,-82.5,-172.5,-33.75,-90,-26.25,-146.25,-165,-165,-97.91666666666667
1118,-78.75,-153.75,-22.5,-82.5,-15,-131.25,-150,-150,-87.08333333333333
1119,-67.5,-131.25,-11.25,-67.5,0,-120,-138.75,-138.75,-75.0
1120,-82.5,-142.5,-15,-67.5,-3.75,-123.75,-142.5,-146.25,-80.41666666666667
1121,-63.75,-127.5,-11.25,-60,0,-120,-138.75,-138.75,-73.33333333333333
1122,-37.5,-93.75,3.75,-41.25,18.75,-105,-123.75,-123.75,-55.833333333333336
1123,-45,-93.75,3.75,-37.5,22.5,-101.25,-120,-123.75,-55.0
1124,-56.25,-112.5,-7.5,-48.75,11.25,-116.25,-135,-135,-66.66666666666667
1125,-56.25,-120,-11.25,-56.25,3.75,-116.25,-135,-135,-69.58333333333333
1126,-67.5,-142.5,-22.5,-63.75,-3.75,-123.75,-138.75,-138.75,-77.91666666666667
1127,-63.75,-135,-18.75,-60,3.75,-116.25,-138.75,-135,-73.75
1128,-41.25,-112.5,-7.5,-48.75,11.25,-108.75,-127.5,-123.75,-62.083333333333336
1129,-52.5,-135,-15,-60,3.75,-116.25,-135,-131.25,-71.25
1130,-63.75,-138.75,-11.25,-60,7.5,-112.5,-135,-135,-72.08333333333333
1131,-52.5,-116.25,0,-48.75,15,-105,-127.5,-127.5,-62.5
1132,-60,-116.25,3.75,-45,18.75,-105,-123.75,-123.75,-61.25
1133,-75,-120,3.75,-37.5,22.5,-97.5,-120,-116.25,-60.0
1134,-63.75,-93.75,11.25,-26.25,33.75,-86.25,-108.75,-105,-48.75
1135,-52.5,-105,-7.5,-37.5,22.5,-101.25,-123.75,-116.25,-57.916666666666664
1136,-52.5,-135,-30,-60,3.75,-123.75,-142.5,-135,-75.0
1137,-45,-120,-26.25,-56.25,7.5,-112.5,-135,-127.5,-68.33333333333333
1138,-41.25,-101.25,-15,-45,18.75,-97.5,-120,-116.25,-57.5
1139,-37.5,-108.75,-18.75,-48.75,18.75,-101.25,-123.75,-116.25,-59.583333333333336
1140,-26.25,-116.25,-30,-56.25,15,-105,-127.5,-120,-62.916666666666664
1141,-52.5,-142.5,-37.5,-67.5,3.75,-108.75,-131.25,-131.25,-74.16666666666667
1142,-82.5,-165,-41.25,-75,-3.75,-116.25,-135,-138.75,-84.16666666666667
1143,-37.5,-108.75,-15,-52.5,18.75,-97.5,-120,-116.25,-58.75
1144,-22.5,-71.25,7.5,-30,37.5,-78.75,-105,-101.25,-40.416666666666664
1145,-71.25,-97.5,-3.75,-33.75,33.75,-86.25,-108.75,-105,-52.5
1146,-63.75,-97.5,-3.75,-33.75,33.75,-86.25,-108.75,-108.75,-52.083333333333336
1147,-7.5,-71.25,-15,-30,33.75,-86.25,-112.5,-108.75,-44.166666666666664
1148,-11.25,-82.5,-18.75,-37.5,26.25,-93.75,-120,-112.5,-50.0
1149,-48.75,-108.75,-22.5,-48.75,15,-105,-127.5,-123.75,-63.333333333333336
1150,-41.25,-101.25,-22.5,-48.75,22.5,-97.5,-123.75,-116.25,-58.75
1151,-48.75,-112.5,-26.25,-48.75,18.75,-97.5,-123.75,-120,-62.083333333333336
1152,-63.75,-135,-33.75,-56.25,15,-105,-127.5,-123.75,-70.0
1153,-48.75,-127.5,-30,-56.25,18.75,-97.5,-123.75,-120,-65.0
1154,-18.75,-93.75,-18.75,-48.75,30,-86.25,-112.5,-108.75,-50.833333333333336
1155,-15,-82.5,-15,-45,33.75,-82.5,-108.75,-108.75,-47.083333333333336
1156,-45,-105,-22.5,-52.5,26.25,-90,-116.25,-112.5,-57.5
1157,-52.5,-112.5,-30,-52.5,22.5,-93.75,-116.25,-116.25,-61.25
1158,-33.75,-93.75,-18.75,-41.25,33.75,-82.5,-105,-105,-49.583333333333336
1159,-37.5,-90,-18.75,-33.75,37.5,-82.5,-105,-101.25,-47.916666666666664
1160,-30,-90,-18.75,-41.25,30,-90,-108.75,-105,-50.416666666666664
1161,-18.75,-90,-22.5,-48.75,26.25,-93.75,-112.5,-108.75,-52.083333333333336
1162,-30,-108.75,-30,-56.25,18.75,-101.25,-120,-116.25,-60.416666666666664
1163,-52.5,-123.75,-41.25,-60,15,-101.25,-123.75,-120,-67.5
1164,-45,-120,-33.75,-60,18.75,-97.5,-120,-116.25,-63.75
1165,-37.5,-116.25,-30,-56.25,18.75,-93.75,-116.25,-112.5,-60.416666666666664
1166,-45,-116.25,-30,-60,18.75,-93.75,-120,-112.5,-62.083333333333336
1167,-67.5,-127.5,-30,-63.75,15,-105,-127.5,-120,-69.58333333333333
1168,-75,-138.75,-41.25,-71.25,3.75,-116.25,-138.75,-127.5,-78.33333333333333
1169,-37.5,-101.25,-26.25,-52.5,18.75,-97.5,-120,-112.5,-58.75
1170,-11.25,-71.25,-18.75,-41.25,33.75,-82.5,-105,-97.5,-43.75
1171,-15,-78.75,-22.5,-41.25,33.75,-82.5,-105,-101.25,-45.833333333333336
1172,-33.75,-112.5,-45,-63.75,11.25,-105,-123.75,-116.25,-65.41666666666667
1173,-71.25,-142.5,-52.5,-75,3.75,-112.5,-131.25,-123.75,-78.33333333333333
1174,-75,-131.25,-45,-63.75,15,-97.5,-120,-108.75,-69.58333333333333
1175,-41.25,-108.75,-45,-63.75,15,-93.75,-116.25,-105,-62.083333333333336
1176,-26.25,-108.75,-52.5,-75,3.75,-108.75,-127.5,-116.25,-67.91666666666667
1177,-48.75,-127.5,-52.5,-78.75,0,-108.75,-131.25,-123.75,-74.58333333333333
1178,-45,-123.75,-52.5,-78.75,0,-105,-127.5,-123.75,-72.91666666666667
1179,-48.75,-112.5,-41.25,-67.5,15,-93.75,-116.25,-112.5,-64.16666666666667
1180,-82.5,-135,-45,-75,7.5,-101.25,-123.75,-120,-75.0
1181,-52.5,-112.5,-45,-75,7.5,-105,-123.75,-120,-69.58333333333333
1182,-11.25,-71.25,-33.75,-60,18.75,-90,-108.75,-101.25,-50.833333333333336
1183,-22.5,-82.5,-37.5,-60,15,-93.75,-108.75,-105,-55.0
1184,-45,-101.25,-45,-67.5,3.75,-101.25,-120,-112.5,-65.41666666666667
1185,-52.5,-105,-48.75,-75,3.75,-108.75,-123.75,-112.5,-69.16666666666667
1186,-48.75,-112.5,-48.75,-78.75,0,-112.5,-127.5,-112.5,-71.25
1187,-41.25,-116.25,-52.5,-82.5,-3.75,-112.5,-127.5,-116.25,-72.5
1188,-45,-127.5,-52.5,-82.5,-3.75,-112.5,-123.75,-120,-74.16666666666667
1189,-63.75,-146.25,-56.25,-93.75,-15,-123.75,-138.75,-127.5,-85.0
1190,-45,-138.75,-56.25,-93.75,-15,-120,-135,-127.5,-81.25
1191,-22.5,-116.25,-48.75,-86.25,-7.5,-116.25,-131.25,-123.75,-72.5
1192,-45,-120,-48.75,-86.25,-7.5,-120,-135,-127.5,-76.66666666666667
1193,-37.5,-116.25,-52.5,-86.25,-7.5,-116.25,-135,-127.5,-75.41666666666667
1194,-30,-105,-48.75,-82.5,0,-112.5,-131.25,-123.75,-70.41666666666667
1195,-63.75,-127.5,-52.5,-82.5,-3.75,-116.25,-135,-123.75,-78.33333333333333
1196,-67.5,-146.25,-63.75,-90,-11.25,-120,-138.75,-127.5,-85.0
1197,-26.25,-120,-63.75,-90,-11.25,-116.25,-131.25,-120,-75.41666666666667
1198,-11.25,-97.5,-52.5,-86.25,-3.75,-112.5,-123.75,-112.5,-66.66666666666667
1199,-30,-116.25,-60,-97.5,-15,-123.75,-138.75,-120,-77.91666666666667
1200,-45,-127.5,-60,-97.5,-18.75,-120,-135,-120,-80.41666666666667
1201,-67.5,-142.5,-60,-101.25,-18.75,-120,-135,-123.75,-85.41666666666667
1202,-78.75,-157.5,-63.75,-108.75,-22.5,-123.75,-138.75,-131.25,-91.66666666666667
1203,-75,-153.75,-60,-105,-18.75,-120,-135,-131.25,-88.75
1204,-67.5,-131.25,-52.5,-93.75,-11.25,-116.25,-127.5,-120,-80.0
1205,-71.25,-120,-48.75,-90,-11.25,-112.5,-127.5,-116.25,-77.5
1206,-63.75,-123.75,-52.5,-93.75,-15,-120,-135,-123.75,-80.83333333333333
1207,-33.75,-108.75,-56.25,-90,-11.25,-120,-135,-120,-75.0
1208,-22.5,-101.25,-56.25,-86.25,-7.5,-116.25,-131.25,-120,-71.25
1209,-30,-116.25,-63.75,-97.5,-18.75,-123.75,-138.75,-127.5,-79.58333333333333
1210,-48.75,-127.5,-63.75,-101.25,-18.75,-123.75,-138.75,-127.5,-83.33333333333333
1211,-60,-135,-63.75,-101.25,-22.5,-127.5,-146.25,-131.25,-87.5
1212,-56.25,-138.75,-60,-105,-22.5,-131.25,-146.25,-131.25,-87.91666666666667
1213,-60,-146.25,-60,-105,-22.5,-127.5,-142.5,-131.25,-88.33333333333333
1214,-48.75,-150,-67.5,-112.5,-30,-131.25,-146.25,-135,-91.25
1215,-11.25,-127.5,-67.5,-112.5,-26.25,-127.5,-142.5,-131.25,-82.91666666666667
1216,7.5,-120,-71.25,-120,-33.75,-135,-153.75,-150,-86.25
1217,-41.25,-150,-82.5,-127.5,-45,-150,-168.75,-161.25,-102.91666666666667
1218,-165,-187.5,-71.25,-112.5,-30,-135,-153.75,-142.5,-110.83333333333333
1219,-202.5,-195,-60,-97.5,-18.75,-127.5,-142.5,-127.5,-107.91666666666667
1220,-37.5,-108.75,-56.25,-90,-15,-120,-135,-120,-75.83333333333333
1221,60,-48.75,-48.75,-86.25,-7.5,-112.5,-123.75,-112.5,-53.333333333333336
1222,-71.25,-101.25,-37.5,-78.75,0,-101.25,-116.25,-105,-67.91666666666667
1223,-150,-127.5,-33.75,-75,7.5,-90,-105,-93.75,-74.16666666666667
1224,-63.75,-131.25,-67.5,-105,-22.5,-123.75,-138.75,-123.75,-86.25
1225,-11.25,-153.75,-97.5,-142.5,-60,-161.25,-176.25,-161.25,-107.08333333333333
1226,-52.5,-165,-90,-138.75,-52.5,-153.75,-168.75,-153.75,-108.33333333333333
1227,-67.5,-146.25,-71.25,-120,-37.5,-142.5,-153.75,-138.75,-97.5
1228,-56.25,-127.5,-60,-105,-22.5,-131.25,-150,-131.25,-87.08333333333333
1229,-60,-131.25,-63.75,-108.75,-26.25,-135,-146.25,-131.25,-89.16666666666667
1230,-48.75,-120,-63.75,-101.25,-22.5,-131.25,-142.5,-127.5,-84.16666666666667
1231,-26.25,-101.25,-56.25,-93.75,-15,-123.75,-138.75,-123.75,-75.41666666666667
1232,-33.75,-112.5,-63.75,-101.25,-18.75,-127.5,-142.5,-131.25,-81.25
1233,-41.25,-120,-63.75,-101.25,-18.75,-123.75,-142.5,-127.5,-82.08333333333333
1234,-30,-112.5,-63.75,-105,-18.75,-123.75,-142.5,-123.75,-80.0
1235,-30,-112.5,-63.75,-105,-22.5,-123.75,-138.75,-123.75,-80.0
1236,-45,-127.5,-71.25,-112.5,-26.25,-127.5,-142.5,-127.5,-86.66666666666667
1237,-48.75,-138.75,-78.75,-120,-33.75,-135,-150,-131.25,-92.91666666666667
1238,-52.5,-142.5,-71.25,-123.75,-33.75,-135,-150,-135,-93.75
1239,-52.5,-135,-67.5,-120,-33.75,-131.25,-146.25,-135,-91.25
1240,-48.75,-123.75,-63.75,-112.5,-26.25,-127.5,-142.5,-131.25,-86.25
1241,-45,-120,-63.75,-108.75,-22.5,-127.5,-138.75,-127.5,-83.75
1242,-45,-116.25,-60,-105,-15,-120,-135,-120,-79.58333333333333
1243,-45,-112.5,-63.75,-105,-18.75,-123.75,-138.75,-123.75,-81.25
1244,-37.5,-116.25,-67.5,-112.5,-26.25,-131.25,-142.5,-127.5,-84.58333333333333
1245,-41.25,-127.5,-75,-120,-37.5,-138.75,-150,-135,-91.66666666666667
1246,-37.5,-127.5,-78.75,-120,-37.5,-138.75,-150,-138.75,-92.08333333333333
1247,-56.25,-131.25,-75,-120,-33.75,-135,-150,-135,-92.91666666666667
1248,-75,-146.25,-75,-120,-33.75,-135,-150,-138.75,-97.08333333333333
1249,-60,-142.5,-75,-120,-33.75,-138.75,-157.5,-142.5,-96.66666666666667
1250,-48.75,-138.75,-75,-123.75,-33.75,-138.75,-157.5,-142.5,-95.41666666666667
1251,-90,-176.25,-90,-138.75,-48.75,-153.75,-168.75,-153.75,-113.33333333333333
1252,-142.5,-228.75,-112.5,-157.5,-63.75,-168.75,-183.75,-172.5,-136.66666666666666
1253,-138.75,-217.5,-105,-146.25,-56.25,-161.25,-176.25,-161.25,-129.16666666666666
1254,-33.75,-101.25,-67.5,-105,-15,-123.75,-138.75,-123.75,-78.75
1255,33.75,-30,-41.25,-75,11.25,-97.5,-112.5,-97.5,-45.416666666666664
1256,26.25,-52.5,-52.5,-86.25,0,-105,-123.75,-105,-55.416666666666664
1257,15,-67.5,-60,-97.5,-7.5,-112.5,-131.25,-116.25,-64.16666666666667
1258,-11.25,-78.75,-60,-97.5,-11.25,-112.5,-131.25,-116.25,-68.75
1259,-22.5,-86.25,-56.25,-97.5,-11.25,-116.25,-135,-116.25,-71.25
1260,-22.5,-86.25,-48.75,-97.5,-11.25,-116.25,-135,-116.25,-70.41666666666667
1261,-33.75,-82.5,-41.25,-93.75,-3.75,-108.75,-127.5,-112.5,-67.08333333333333
1262,-33.75,-63.75,-30,-82.5,7.5,-97.5,-112.5,-105,-57.5
1263,-37.5,-56.25,-15,-71.25,15,-93.75,-108.75,-93.75,-51.25
1264,-37.5,-63.75,-15,-75,11.25,-101.25,-120,-105,-56.25
1265,-37.5,-63.75,-15,-71.25,15,-97.5,-120,-108.75,-55.416666666666664
1266,-22.5,-48.75,-11.25,-60,22.5,-90,-112.5,-101.25,-47.083333333333336
1267,-7.5,-48.75,-22.5,-60,15,-97.5,-120,-108.75,-50.0
1268,0,-60,-26.25,-63.75,15,-101.25,-120,-108.75,-51.666666666666664
1269,3.75,-60,-22.5,-67.5,15,-101.25,-116.25,-108.75,-50.833333333333336
1270,-18.75,-63.75,-15,-60,22.5,-93.75,-108.75,-101.25,-48.75
1271,-37.5,-63.75,-11.25,-52.5,30,-86.25,-105,-93.75,-46.666666666666664
1272,-30,-67.5,-11.25,-60,22.5,-90,-108.75,-101.25,-49.583333333333336
1273,-22.5,-71.25,-18.75,-67.5,11.25,-93.75,-112.5,-108.75,-53.75
1274,-30,-60,-11.25,-60,22.5,-86.25,-108.75,-105,-48.75
1275,-37.5,-52.5,-3.75,-52.5,30,-78.75,-101.25,-97.5,-43.75
1276,-41.25,-52.5,-3.75,-56.25,30,-78.75,-93.75,-90,-42.916666666666664
1277,-41.25,-48.75,-15,-56.25,26.25,-78.75,-93.75,-90,-44.166666666666664
1278,-15,-7.5,-15,-41.25,48.75,-60,-75,-67.5,-25.833333333333332
1279,11.25,-3.75,-33.75,-45,41.25,-67.5,-78.75,-67.5,-27.083333333333332
1280,-15,-52.5,-67.5,-75,15,-93.75,-105,-90,-53.75
1281,-37.5,-63.75,-75,-78.75,15,-93.75,-101.25,-86.25,-57.916666666666664
1282,-26.25,-67.5,-78.75,-82.5,11.25,-93.75,-108.75,-90,-59.583333333333336
1283,-15,-75,-90,-93.75,0,-105,-116.25,-97.5,-65.83333333333333
1284,-30,-67.5,-78.75,-82.5,11.25,-93.75,-105,-86.25,-59.166666666666664
1285,-3.75,-45,-71.25,-78.75,22.5,-82.5,-93.75,-75,-47.5
1286,41.25,-37.5,-86.25,-93.75,7.5,-93.75,-101.25,-86.25,-50.0
1287,56.25,-30,-93.75,-101.25,3.75,-97.5,-101.25,-86.25,-50.0
1288,37.5,-41.25,-90,-101.25,3.75,-97.5,-101.25,-86.25,-52.916666666666664
1289,18.75,-52.5,-86.25,-97.5,0,-101.25,-108.75,-93.75,-57.916666666666664
1290,33.75,-37.5,-78.75,-90,7.5,-93.75,-105,-86.25,-50.0
1291,26.25,-41.25,-82.5,-93.75,3.75,-105,-112.5,-90,-55.0
1292,3.75,-52.5,-78.75,-93.75,3.75,-108.75,-112.5,-90,-58.75
1293,26.25,-56.25,-78.75,-101.25,-7.5,-116.25,-123.75,-101.25,-62.083333333333336
1294,56.25,-67.5,-93.75,-112.5,-18.75,-127.5,-135,-112.5,-67.91666666666667
1295,11.25,-82.5,-78.75,-97.5,0,-105,-116.25,-97.5,-62.916666666666664
1296,-71.25,-82.5,-48.75,-75,26.25,-75,-86.25,-71.25,-53.75
1297,-41.25,-86.25,-60,-90,11.25,-90,-101.25,-90,-60.833333333333336
1298,33.75,-90,-90,-123.75,-22.5,-123.75,-135,-123.75,-75.0
1299,7.5,-90,-75,-112.5,-15,-116.25,-127.5,-116.25,-71.66666666666667
1300,-7.5,-86.25,-71.25,-108.75,-11.25,-112.5,-123.75,-108.75,-70.0
1301,-11.25,-90,-75,-116.25,-18.75,-120,-127.5,-116.25,-75.0
1302,-30,-90,-71.25,-108.75,-18.75,-120,-127.5,-116.25,-75.83333333333333
1303,-45,-101.25,-78.75,-108.75,-22.5,-131.25,-138.75,-123.75,-83.33333333333333
1304,-37.5,-112.5,-78.75,-116.25,-26.25,-135,-150,-127.5,-87.08333333333333
1305,-37.5,-116.25,-78.75,-120,-33.75,-138.75,-150,-131.25,-89.58333333333333
1306,-33.75,-116.25,-82.5,-120,-33.75,-142.5,-150,-131.25,-90.0
1307,-37.5,-120,-90,-127.5,-37.5,-146.25,-157.5,-138.75,-95.0
1308,-60,-146.25,-97.5,-138.75,-48.75,-153.75,-165,-146.25,-106.25
1309,-82.5,-165,-101.25,-146.25,-56.25,-161.25,-168.75,-153.75,-115.0
1310,-78.75,-150,-82.5,-135,-41.25,-146.25,-157.5,-142.5,-103.75
1311,-56.25,-123.75,-75,-123.75,-30,-135,-146.25,-131.25,-91.25
1312,-82.5,-161.25,-93.75,-142.5,-48.75,-153.75,-165,-150,-110.83333333333333
1313,-131.25,-213.75,-116.25,-157.5,-71.25,-176.25,-187.5,-172.5,-136.25
1314,-112.5,-191.25,-108.75,-150,-63.75,-172.5,-180,-161.25,-126.66666666666667
1315,-45,-123.75,-90,-127.5,-45,-153.75,-157.5,-142.5,-98.33333333333333
1316,0,-86.25,-82.5,-120,-33.75,-138.75,-146.25,-131.25,-82.08333333333333
1317,15,-75,-75,-116.25,-26.25,-135,-142.5,-120,-75.0
1318,7.5,-82.5,-78.75,-116.25,-30,-135,-146.25,-123.75,-78.33333333333333
1319,-15,-105,-82.5,-120,-33.75,-138.75,-150,-127.5,-85.83333333333333
1320,-52.5,-142.5,-86.25,-127.5,-37.5,-146.25,-157.5,-135,-98.33333333333333
1321,-63.75,-150,-90,-138.75,-45,-153.75,-161.25,-138.75,-104.58333333333333
1322,-37.5,-123.75,-78.75,-131.25,-37.5,-142.5,-153.75,-135,-93.33333333333333
1323,-33.75,-116.25,-75,-120,-30,-135,-150,-131.25,-87.91666666666667
1324,-41.25,-120,-75,-120,-30,-138.75,-150,-131.25,-89.58333333333333
1325,-26.25,-108.75,-78.75,-120,-30,-138.75,-150,-135,-87.5
1326,-15,-93.75,-75,-116.25,-26.25,-135,-150,-127.5,-82.08333333333333
1327,-30,-101.25,-82.5,-116.25,-30,-138.75,-153.75,-131.25,-87.08333333333333
1328,-37.5,-120,-90,-127.5,-37.5,-146.25,-161.25,-138.75,-95.41666666666667
1329,-30,-123.75,-86.25,-123.75,-33.75,-146.25,-157.5,-138.75,-93.33333333333333
1330,-41.25,-131.25,-78.75,-116.25,-30,-142.5,-157.5,-138.75,-92.91666666666667
1331,-41.25,-146.25,-75,-112.5,-37.5,-153.75,-172.5,-153.75,-99.16666666666667
1332,-33.75,-165,-56.25,-97.5,-37.5,-165,-187.5,-172.5,-101.66666666666667
1333,-52.5,-191.25,-7.5,-56.25,-26.25,-172.5,-202.5,-195,-100.41666666666667
1334,-48.75,-213.75,45,-7.5,-18.75,-187.5,-225,-221.25,-97.5
1335,-15,-228.75,90,22.5,-26.25,-217.5,-262.5,-258.75,-99.58333333333333
1336,-3.75,-232.5,135,60,-22.5,-232.5,-281.25,-277.5,-95.0
1337,-7.5,-213.75,180,127.5,18.75,-210,-262.5,-266.25,-70.41666666666667
1338,3.75,-157.5,228.75,213.75,86.25,-153.75,-217.5,-225,-24.583333333333332
1339,33.75,-97.5,266.25,288.75,150,-105,-176.25,-183.75,19.583333333333332
1340,75,-63.75,281.25,348.75,206.25,-56.25,-131.25,-146.25,57.083333333333336
1341,112.5,-22.5,292.5,405,270,7.5,-67.5,-90,100.83333333333333
1342,142.5,37.5,300,450,330,75,0,-26.25,145.41666666666666
1343,195,116.25,292.5,480,382.5,146.25,75,48.75,192.91666666666666
1344,262.5,202.5,273.75,528.75,465,247.5,180,150,256.6666666666667
1345,322.5,303.75,258.75,592.5,570,371.25,303.75,266.25,332.0833333333333
1346,367.5,435,240,630,663.75,498.75,438.75,397.5,407.9166666666667
1347,412.5,581.25,187.5,630,757.5,633.75,588.75,543.75,481.6666666666667
1348,450,742.5,142.5,648.75,870,795,757.5,705,567.9166666666666
1349,476.25,930,131.25,701.25,1005,967.5,937.5,877.5,669.5833333333334
1350,555,1200,82.5,712.5,1117.5,1151.25,1147.5,1098.75,785.0
1351,641.25,1451.25,-33.75,652.5,1200,1323.75,1365,1323.75,880.4166666666666
1352,667.5,1533.75,-180,551.25,1241.25,1447.5,1515,1470,916.25
1353,678.75,1590,-315,405,1256.25,1552.5,1638.75,1590,932.9166666666666
1354,641.25,1642.5,-397.5,270,1267.5,1642.5,1743.75,1680,943.3333333333334
1355,551.25,1582.5,-378.75,255,1320,1706.25,1781.25,1680,944.1666666666666
1356,480,1477.5,-341.25,288.75,1380,1747.5,1781.25,1635,938.75
1357,412.5,1406.25,-356.25,236.25,1376.25,1740,1751.25,1582.5,905.4166666666666
1358,288.75,1293.75,-382.5,116.25,1286.25,1642.5,1642.5,1477.5,818.3333333333334
1359,187.5,1110,-393.75,-15,1113.75,1421.25,1417.5,1263.75,678.3333333333334
1360,101.25,903.75,-371.25,-123.75,900,1140,1132.5,1005,520.8333333333334
1361,18.75,720,-345,-247.5,641.25,828.75,843.75,765,358.3333333333333
1362,-67.5,566.25,-345,-397.5,356.25,510,558.75,543.75,191.66666666666666
1363,-142.5,423.75,-386.25,-558.75,90,232.5,307.5,348.75,35.0
1364,-183.75,277.5,-412.5,-652.5,-75,45,123.75,183.75,-77.08333333333333
1365,-187.5,157.5,-393.75,-630,-108.75,-33.75,15,60,-124.58333333333333
1366,-187.5,78.75,-378.75,-588.75,-108.75,-67.5,-41.25,-11.25,-145.0
1367,-195,33.75,-386.25,-562.5,-97.5,-67.5,-56.25,-33.75,-151.66666666666666
1368,-180,15,-401.25,-521.25,-75,-48.75,-45,-30,-142.91666666666666
1369,-165,3.75,-386.25,-468.75,-56.25,-37.5,-33.75,-26.25,-130.0
1370,-161.25,-18.75,-360,-435,-67.5,-52.5,-48.75,-37.5,-131.25
1371,-142.5,-41.25,-345,-405,-82.5,-78.75,-67.5,-52.5,-135.0
1372,-131.25,-60,-322.5,-363.75,-78.75,-86.25,-78.75,-60,-131.25
1373,-138.75,-56.25,-288.75,-307.5,-52.5,-78.75,-71.25,-52.5,-116.25
1374,-127.5,-26.25,-247.5,-243.75,-11.25,-52.5,-52.5,-33.75,-88.33333333333333
1375,-78.75,0,-225,-187.5,22.5,-26.25,-33.75,-18.75,-60.833333333333336
1376,-30,15,-191.25,-142.5,56.25,-11.25,-22.5,-11.25,-37.5
1377,-30,15,-150,-97.5,82.5,3.75,-15,-7.5,-22.083333333333332
1378,-18.75,15,-120,-71.25,93.75,7.5,-15,-11.25,-13.333333333333334
1379,7.5,18.75,-101.25,-52.5,97.5,7.5,-18.75,-18.75,-6.666666666666667
1380,11.25,0,-82.5,-41.25,97.5,3.75,-22.5,-22.5,-6.25
1381,0,-33.75,-82.5,-48.75,86.25,-15,-45,-41.25,-20.0
1382,-7.5,-41.25,-75,-41.25,86.25,-18.75,-48.75,-45,-21.25
1383,-7.5,-30,-60,-33.75,90,-18.75,-48.75,-45,-17.083333333333332
1384,-7.5,-41.25,-63.75,-37.5,78.75,-30,-63.75,-56.25,-24.583333333333332
1385,-22.5,-48.75,-60,-33.75,75,-33.75,-63.75,-60,-27.5
1386,-48.75,-41.25,-48.75,-22.5,86.25,-26.25,-56.25,-52.5,-23.333333333333332
1387,-33.75,-37.5,-48.75,-18.75,82.5,-33.75,-63.75,-52.5,-22.916666666666668
1388,0,-56.25,-75,-45,52.5,-60,-93.75,-78.75,-39.583333333333336
1389,7.5,-63.75,-82.5,-52.5,48.75,-63.75,-97.5,-82.5,-42.916666666666664
1390,18.75,-41.25,-67.5,-37.5,60,-48.75,-78.75,-71.25,-29.583333333333332
1391,11.25,-45,-67.5,-41.25,56.25,-56.25,-86.25,-75,-33.75
1392,0,-52.5,-67.5,-41.25,52.5,-60,-90,-78.75,-37.5
1393,3.75,-56.25,-63.75,-41.25,52.5,-60,-90,-78.75,-37.083333333333336
1394,3.75,-63.75,-63.75,-41.25,52.5,-60,-90,-82.5,-38.333333333333336
1395,3.75,-60,-60,-41.25,52.5,-63.75,-93.75,-82.5,-38.333333333333336
1396,3.75,-56.25,-60,-33.75,56.25,-60,-90,-78.75,-35.416666666666664
1397,-15,-60,-52.5,-26.25,63.75,-52.5,-82.5,-71.25,-32.916666666666664
1398,-41.25,-67.5,-48.75,-18.75,67.5,-52.5,-78.75,-63.75,-33.75
1399,-15,-60,-56.25,-22.5,60,-60,-86.25,-71.25,-34.583333333333336
1400,7.5,-67.5,-75,-33.75,52.5,-67.5,-97.5,-82.5,-40.416666666666664
1401,3.75,-71.25,-78.75,-37.5,48.75,-67.5,-97.5,-82.5,-42.5
1402,18.75,-45,-56.25,-22.5,67.5,-48.75,-78.75,-63.75,-25.416666666666668
1403,26.25,-33.75,-56.25,-18.75,67.5,-48.75,-75,-60,-22.083333333333332
1404,41.25,-26.25,-52.5,-15,71.25,-45,-75,-60,-17.916666666666668
1405,30,-48.75,-56.25,-22.5,67.5,-45,-78.75,-63.75,-24.166666666666668
1406,15,-67.5,-63.75,-26.25,63.75,-52.5,-82.5,-71.25,-31.666666666666668
1407,18.75,-52.5,-60,-22.5,67.5,-48.75,-75,-63.75,-26.25
1408,18.75,-41.25,-56.25,-15,75,-41.25,-67.5,-60,-20.833333333333332
1409,7.5,-37.5,-48.75,-3.75,82.5,-33.75,-60,-56.25,-16.666666666666668
1410,-7.5,-37.5,-48.75,0,90,-30,-63.75,-52.5,-16.666666666666668
1411,18.75,-33.75,-56.25,0,82.5,-37.5,-67.5,-56.25,-16.666666666666668
1412,48.75,-30,-67.5,-11.25,75,-41.25,-71.25,-67.5,-18.333333333333332
1413,33.75,-33.75,-67.5,-7.5,78.75,-37.5,-71.25,-60,-18.333333333333332
1414,18.75,-41.25,-67.5,-7.5,82.5,-37.5,-67.5,-56.25,-19.583333333333332
1415,26.25,-45,-67.5,-7.5,78.75,-33.75,-67.5,-60,-19.583333333333332
1416,22.5,-56.25,-75,-11.25,78.75,-37.5,-71.25,-63.75,-23.75
1417,11.25,-63.75,-71.25,-11.25,82.5,-33.75,-71.25,-60,-24.166666666666668
1418,15,-56.25,-67.5,-3.75,86.25,-30,-63.75,-56.25,-19.583333333333332
1419,26.25,-37.5,-60,3.75,90,-26.25,-56.25,-52.5,-12.5
1420,33.75,-37.5,-63.75,3.75,90,-22.5,-60,-52.5,-12.083333333333334
1421,30,-33.75,-67.5,7.5,93.75,-15,-48.75,-48.75,-9.166666666666666
1422,22.5,-15,-56.25,26.25,112.5,0,-33.75,-33.75,2.5
1423,22.5,-18.75,-60,26.25,112.5,3.75,-33.75,-33.75,2.0833333333333335
1424,60,-11.25,-67.5,18.75,108.75,-3.75,-37.5,-37.5,3.3333333333333335
1425,86.25,7.5,-63.75,22.5,112.5,0,-30,-30,11.666666666666666
1426,75,-3.75,-67.5,26.25,112.5,7.5,-22.5,-22.5,11.666666666666666
1427,67.5,-11.25,-67.5,22.5,112.5,0,-33.75,-26.25,7.083333333333333
1428,45,-33.75,-75,15,105,-7.5,-45,-37.5,-3.75
1429,15,-41.25,-71.25,22.5,112.5,3.75,-30,-30,-2.0833333333333335
1430,15,-15,-52.5,37.5,131.25,22.5,-11.25,-18.75,12.083333333333334
1431,33.75,-15,-56.25,37.5,127.5,18.75,-15,-18.75,12.5
1432,63.75,-18.75,-71.25,22.5,112.5,3.75,-30,-33.75,5.416666666666667
1433,78.75,3.75,-63.75,33.75,123.75,15,-18.75,-22.5,16.666666666666668
1434,97.5,37.5,-56.25,52.5,142.5,30,-3.75,-7.5,32.5
1435,105,41.25,-63.75,52.5,142.5,26.25,-3.75,-3.75,32.916666666666664
1436,93.75,22.5,-71.25,45,135,22.5,-11.25,-11.25,25.0
1437,97.5,30,-71.25,48.75,138.75,30,-3.75,-3.75,29.583333333333332
1438,101.25,33.75,-71.25,52.5,146.25,33.75,0,3.75,33.333333333333336
1439,101.25,15,-71.25,52.5,142.5,33.75,-3.75,0,30.0
1440,108.75,15,-75,48.75,135,26.25,-7.5,-3.75,27.5
1441,97.5,18.75,-67.5,48.75,138.75,30,-3.75,0,29.166666666666668
1442,86.25,15,-67.5,48.75,138.75,33.75,-3.75,0,27.916666666666668
1443,63.75,11.25,-63.75,60,153.75,45,11.25,11.25,32.5
1444,45,7.5,-56.25,67.5,157.5,48.75,15,15,33.333333333333336
1445,82.5,33.75,-52.5,71.25,161.25,52.5,18.75,22.5,43.333333333333336
1446,146.25,82.5,-52.5,78.75,168.75,63.75,30,30,60.833333333333336
1447,146.25,78.75,-60,82.5,168.75,60,26.25,30,59.166666666666664
1448,105,33.75,-71.25,67.5,153.75,45,11.25,18.75,40.416666666666664
1449,97.5,18.75,-78.75,63.75,153.75,45,15,18.75,37.083333333333336
1450,101.25,22.5,-86.25,63.75,157.5,52.5,22.5,22.5,39.583333333333336
1451,105,30,-78.75,67.5,161.25,56.25,26.25,26.25,43.75
1452,101.25,37.5,-71.25,71.25,165,56.25,26.25,33.75,46.666666666666664
1453,75,26.25,-71.25,71.25,165,60,30,37.5,43.75
1454,78.75,11.25,-82.5,60,157.5,56.25,26.25,30,37.5
1455,142.5,56.25,-67.5,78.75,172.5,67.5,37.5,45,59.166666666666664
1456,165,82.5,-63.75,82.5,176.25,71.25,41.25,45,66.66666666666667
1457,142.5,75,-71.25,78.75,168.75,63.75,37.5,41.25,59.583333333333336
1458,138.75,82.5,-63.75,86.25,180,71.25,45,52.5,65.83333333333333
1459,135,75,-75,82.5,176.25,71.25,48.75,52.5,62.916666666666664
1460,138.75,63.75,-82.5,75,165,60,37.5,45,55.833333333333336
1461,165,78.75,-82.5,78.75,172.5,71.25,45,56.25,65.0
1462,172.5,82.5,-78.75,78.75,172.5,75,52.5,63.75,68.75
1463,157.5,67.5,-82.5,75,168.75,71.25,48.75,56.25,62.5
1464,146.25,56.25,-82.5,71.25,168.75,71.25,48.75,60,60.0
1465,165,63.75,-82.5,71.25,168.75,71.25,52.5,60,63.333333333333336
1466,180,78.75,-78.75,71.25,168.75,75,52.5,63.75,67.91666666666667
1467,146.25,63.75,-75,71.25,168.75,71.25,52.5,63.75,62.5
1468,127.5,52.5,-78.75,67.5,161.25,63.75,48.75,60,55.833333333333336
1469,142.5,63.75,-78.75,71.25,161.25,67.5,52.5,63.75,60.416666666666664
1470,146.25,71.25,-78.75,71.25,161.25,67.5,52.5,67.5,62.083333333333336
1471,153.75,67.5,-90,67.5,157.5,63.75,52.5,63.75,59.583333333333336
1472,180,75,-90,63.75,157.5,67.5,52.5,71.25,64.16666666666667
1473,206.25,105,-78.75,71.25,161.25,71.25,60,78.75,75.0
1474,217.5,127.5,-78.75,67.5,157.5,71.25,60,78.75,77.91666666666667
1475,210,123.75,-90,56.25,150,63.75,56.25,71.25,71.25
1476,183.75,90,-93.75,48.75,142.5,60,48.75,67.5,60.833333333333336
1477,172.5,67.5,-90,48.75,138.75,52.5,45,67.5,55.833333333333336
1478,176.25,75,-78.75,48.75,142.5,52.5,48.75,71.25,59.583333333333336
1479,187.5,90,-75,48.75,138.75,52.5,48.75,75,62.916666666666664
1480,210,120,-67.5,56.25,142.5,56.25,56.25,78.75,72.5
1481,210,120,-63.75,56.25,142.5,56.25,56.25,78.75,72.91666666666667
1482,180,97.5,-71.25,52.5,135,48.75,48.75,71.25,62.5
1483,161.25,93.75,-78.75,48.75,127.5,45,45,67.5,56.666666666666664
1484,146.25,90,-75,45,123.75,41.25,41.25,63.75,52.916666666666664
1485,168.75,97.5,-71.25,45,123.75,41.25,41.25,63.75,56.666666666666664
1486,198.75,108.75,-71.25,41.25,120,37.5,37.5,63.75,59.583333333333336
1487,195,101.25,-71.25,37.5,112.5,30,30,60,55.0
1488,176.25,82.5,-75,30,105,22.5,22.5,52.5,46.25
1489,165,71.25,-71.25,22.5,101.25,18.75,18.75,45,41.25
1490,157.5,71.25,-60,30,105,22.5,18.75,45,43.333333333333336
1491,146.25,71.25,-48.75,33.75,108.75,22.5,22.5,45,44.583333333333336
1492,127.5,63.75,-45,37.5,108.75,22.5,22.5,45,42.5
1493,131.25,71.25,-41.25,45,112.5,22.5,18.75,45,45.0
1494,146.25,82.5,-41.25,41.25,105,15,11.25,37.5,44.166666666666664
1495,127.5,71.25,-41.25,41.25,105,7.5,7.5,33.75,39.166666666666664
1496,97.5,56.25,-37.5,41.25,105,7.5,3.75,33.75,34.166666666666664
1497,135,60,-41.25,33.75,97.5,0,-3.75,22.5,33.75
1498,161.25,56.25,-48.75,26.25,82.5,-18.75,-22.5,7.5,27.083333333333332
1499,123.75,37.5,-41.25,26.25,82.5,-18.75,-26.25,3.75,20.833333333333332
1500,90,22.5,-33.75,30,82.5,-15,-22.5,3.75,17.5
1501,93.75,22.5,-22.5,33.75,86.25,-15,-22.5,0,19.583333333333332
1502,97.5,26.25,-18.75,37.5,90,-11.25,-22.5,-3.75,21.666666666666668
1503,75,18.75,-7.5,41.25,90,-15,-26.25,-3.75,19.166666666666668
1504,71.25,11.25,-7.5,37.5,82.5,-22.5,-37.5,-15,13.333333333333334
1505,52.5,-11.25,-15,30,78.75,-33.75,-45,-26.25,3.3333333333333335
1506,18.75,-30,-22.5,26.25,71.25,-45,-56.25,-33.75,-7.916666666666667
1507,48.75,-3.75,-15,30,75,-41.25,-52.5,-30,1.25
1508,93.75,26.25,-7.5,37.5,82.5,-33.75,-45,-26.25,14.166666666666666
1509,86.25,22.5,-3.75,33.75,82.5,-33.75,-48.75,-30,12.083333333333334
1510,56.25,-3.75,-7.5,30,75,-41.25,-56.25,-37.5,1.6666666666666667
1511,37.5,-18.75,-7.5,30,78.75,-41.25,-56.25,-41.25,-2.0833333333333335
1512,48.75,-22.5,-11.25,22.5,71.25,-45,-63.75,-48.75,-5.416666666666667
1513,56.25,-30,-15,11.25,63.75,-52.5,-71.25,-60,-10.833333333333334
1514,33.75,-41.25,-15,7.5,56.25,-56.25,-75,-67.5,-17.5
1515,11.25,-52.5,-15,3.75,52.5,-63.75,-86.25,-75,-25.0
1516,0,-60,-15,3.75,56.25,-67.5,-90,-78.75,-27.916666666666668
1517,7.5,-41.25,-7.5,11.25,60,-60,-86.25,-75,-21.25
1518,0,-26.25,7.5,26.25,71.25,-52.5,-78.75,-67.5,-13.333333333333334
1519,7.5,-26.25,7.5,22.5,67.5,-56.25,-78.75,-63.75,-13.333333333333334
1520,37.5,-26.25,-3.75,11.25,56.25,-63.75,-86.25,-71.25,-16.25
1521,37.5,-33.75,-7.5,3.75,56.25,-63.75,-90,-78.75,-19.583333333333332
1522,7.5,-56.25,-11.25,-3.75,48.75,-75,-101.25,-90,-31.25
1523,-18.75,-71.25,-18.75,-15,37.5,-82.5,-108.75,-93.75,-41.25
1524,-22.5,-71.25,-11.25,-11.25,45,-71.25,-97.5,-86.25,-36.25
1525,-22.5,-75,-11.25,-15,45,-75,-97.5,-93.75,-38.333333333333336
1526,-18.75,-75,-11.25,-18.75,41.25,-78.75,-108.75,-97.5,-40.833333333333336
1527,-15,-56.25,-3.75,-11.25,48.75,-71.25,-101.25,-93.75,-33.75
1528,-30,-60,-3.75,-11.25,45,-71.25,-101.25,-93.75,-36.25
1529,-37.5,-78.75,-7.5,-15,37.5,-82.5,-108.75,-101.25,-43.75
1530,-15,-71.25,-15,-18.75,33.75,-90,-116.25,-105,-44.166666666666664
1531,-7.5,-56.25,-11.25,-11.25,41.25,-86.25,-108.75,-101.25,-37.916666666666664
1532,-26.25,-63.75,-11.25,-15,41.25,-82.5,-108.75,-97.5,-40.416666666666664
1533,-37.5,-82.5,-18.75,-26.25,26.25,-90,-120,-108.75,-50.833333333333336
1534,-22.5,-86.25,-22.5,-33.75,22.5,-97.5,-123.75,-112.5,-52.916666666666664
1535,-7.5,-82.5,-22.5,-37.5,22.5,-97.5,-120,-108.75,-50.416666666666664
1536,-30,-86.25,-15,-30,26.25,-90,-116.25,-105,-49.583333333333336
1537,-78.75,-101.25,-7.5,-26.25,30,-82.5,-112.5,-105,-53.75
1538,-82.5,-116.25,-11.25,-33.75,26.25,-90,-116.25,-108.75,-59.166666666666664
1539,-67.5,-127.5,-22.5,-48.75,11.25,-105,-131.25,-127.5,-68.75
1540,-90,-131.25,-18.75,-45,11.25,-108.75,-138.75,-127.5,-72.08333333333333
1541,-71.25,-93.75,3.75,-22.5,33.75,-82.5,-112.5,-105,-50.0
1542,-41.25,-67.5,3.75,-15,37.5,-78.75,-105,-101.25,-40.833333333333336
1543,-26.25,-71.25,-11.25,-30,22.5,-101.25,-127.5,-116.25,-51.25
1544,-41.25,-90,-22.5,-37.5,15,-105,-135,-123.75,-60.0
1545,-52.5,-97.5,-22.5,-37.5,18.75,-101.25,-127.5,-120,-60.0
1546,-60,-105,-26.25,-41.25,11.25,-105,-131.25,-120,-64.16666666666667
1547,-71.25,-112.5,-26.25,-41.25,11.25,-105,-135,-123.75,-67.08333333333333
1548,-78.75,-127.5,-33.75,-48.75,3.75,-108.75,-138.75,-127.5,-73.33333333333333
1549,-78.75,-138.75,-33.75,-56.25,3.75,-108.75,-138.75,-127.5,-75.41666666666667
1550,-78.75,-142.5,-30,-56.25,7.5,-108.75,-138.75,-127.5,-75.0
1551,-97.5,-146.25,-30,-52.5,11.25,-105,-135,-131.25,-76.25
1552,-116.25,-138.75,-18.75,-41.25,18.75,-93.75,-127.5,-123.75,-71.25
1553,-108.75,-105,0,-18.75,37.5,-78.75,-108.75,-105,-54.166666666666664
1554,-78.75,-86.25,0,-11.25,45,-75,-108.75,-97.5,-45.833333333333336
1555,-60,-105,-22.5,-33.75,22.5,-97.5,-127.5,-116.25,-60.0
1556,-75,-123.75,-33.75,-45,15,-105,-138.75,-123.75,-70.0
1557,-105,-146.25,-37.5,-48.75,11.25,-108.75,-138.75,-127.5,-77.91666666666667
1558,-105,-150,-41.25,-52.5,7.5,-108.75,-142.5,-127.5,-80.0
1559,-78.75,-138.75,-37.5,-52.5,11.25,-105,-138.75,-123.75,-73.75
1560,-78.75,-142.5,-37.5,-52.5,11.25,-105,-138.75,-123.75,-74.16666666666667
1561,-108.75,-157.5,-37.5,-52.5,11.25,-101.25,-135,-123.75,-78.33333333333333
1562,-142.5,-168.75,-37.5,-52.5,11.25,-101.25,-135,-127.5,-83.75
1563,-138.75,-168.75,-37.5,-52.5,11.25,-105,-138.75,-131.25,-84.58333333333333
1564,-112.5,-161.25,-45,-56.25,7.5,-112.5,-146.25,-131.25,-84.16666666666667
1565,-112.5,-142.5,-33.75,-41.25,15,-105,-135,-120,-75.0
1566,-142.5,-142.5,-18.75,-22.5,33.75,-86.25,-116.25,-105,-66.66666666666667
1567,-146.25,-165,-33.75,-33.75,22.5,-93.75,-123.75,-112.5,-76.25
1568,-127.5,-176.25,-60,-60,0,-112.5,-146.25,-135,-90.83333333333333
1569,-120,-172.5,-63.75,-63.75,-3.75,-116.25,-150,-142.5,-92.5
1570,-153.75,-195,-67.5,-71.25,-7.5,-120,-150,-146.25,-101.25
1571,-176.25,-221.25,-71.25,-75,-11.25,-127.5,-157.5,-146.25,-109.58333333333333
1572,-165,-225,-67.5,-71.25,-7.5,-123.75,-153.75,-142.5,-106.25
1573,-176.25,-232.5,-60,-63.75,0,-112.5,-142.5,-135,-102.5
1574,-183.75,-232.5,-63.75,-67.5,-3.75,-116.25,-146.25,-138.75,-105.83333333333333
1575,-168.75,-221.25,-67.5,-67.5,-3.75,-112.5,-142.5,-135,-102.08333333333333
1576,-172.5,-228.75,-71.25,-71.25,-3.75,-112.5,-142.5,-142.5,-105.0
1577,-183.75,-228.75,-71.25,-67.5,0,-112.5,-146.25,-142.5,-105.83333333333333
1578,-183.75,-217.5,-67.5,-60,0,-116.25,-150,-138.75,-103.75
1579,-213.75,-243.75,-78.75,-67.5,-7.5,-127.5,-157.5,-146.25,-115.83333333333333
1580,-210,-247.5,-82.5,-75,-11.25,-127.5,-161.25,-150,-118.33333333333333
1581,-168.75,-213.75,-78.75,-71.25,-7.5,-123.75,-153.75,-142.5,-106.66666666666667
1582,-161.25,-202.5,-75,-67.5,-3.75,-116.25,-146.25,-135,-100.83333333333333
1583,-180,-217.5,-75,-71.25,-3.75,-116.25,-146.25,-135,-105.0
1584,-176.25,-232.5,-86.25,-78.75,-11.25,-123.75,-153.75,-146.25,-112.08333333333333
1585,-176.25,-240,-86.25,-86.25,-18.75,-127.5,-157.5,-150,-115.83333333333333
1586,-187.5,-243.75,-82.5,-82.5,-11.25,-120,-150,-146.25,-113.75
1587,-198.75,-243.75,-78.75,-78.75,-7.5,-120,-150,-142.5,-113.33333333333333
1588,-198.75,-247.5,-82.5,-82.5,-11.25,-123.75,-153.75,-150,-116.66666666666667
1589,-195,-240,-82.5,-78.75,-7.5,-120,-150,-146.25,-113.33333333333333
1590,-180,-206.25,-71.25,-60,7.5,-101.25,-131.25,-123.75,-96.25
1591,-157.5,-198.75,-78.75,-67.5,3.75,-112.5,-138.75,-127.5,-97.5
1592,-153.75,-221.25,-97.5,-86.25,-15,-127.5,-153.75,-146.25,-111.25
1593,-172.5,-232.5,-97.5,-90,-18.75,-127.5,-153.75,-146.25,-115.41666666666667
1594,-206.25,-232.5,-86.25,-78.75,-3.75,-116.25,-142.5,-131.25,-110.83333333333333
1595,-191.25,-228.75,-90,-82.5,-7.5,-120,-146.25,-135,-111.25
1596,-172.5,-243.75,-105,-105,-26.25,-135,-165,-153.75,-122.91666666666667
1597,-191.25,-262.5,-105,-105,-26.25,-135,-161.25,-153.75,-126.66666666666667
1598,-213.75,-255,-90,-90,-15,-123.75,-150,-142.5,-120.0
1599,-221.25,-240,-82.5,-86.25,-11.25,-116.25,-146.25,-138.75,-115.83333333333333
1600,-198.75,-228.75,-82.5,-86.25,-11.25,-120,-150,-138.75,-112.91666666666667
1601,-172.5,-213.75,-78.75,-78.75,-3.75,-112.5,-142.5,-131.25,-103.75
1602,-153.75,-195,-78.75,-75,0,-112.5,-138.75,-123.75,-97.5
1603,-138.75,-191.25,-90,-78.75,-3.75,-116.25,-138.75,-127.5,-98.33333333333333
1604,-146.25,-210,-97.5,-90,-15,-127.5,-153.75,-138.75,-108.75
1605,-165,-217.5,-93.75,-90,-15,-123.75,-150,-135,-110.0
1606,-168.75,-206.25,-86.25,-82.5,-7.5,-116.25,-142.5,-123.75,-103.75
1607,-180,-202.5,-78.75,-78.75,-3.75,-112.5,-142.5,-123.75,-102.5
1608,-180,-206.25,-75,-78.75,-3.75,-108.75,-138.75,-123.75,-101.66666666666667
1609,-142.5,-206.25,-90,-97.5,-18.75,-123.75,-153.75,-135,-107.5
1610,-146.25,-213.75,-93.75,-105,-26.25,-127.5,-153.75,-142.5,-112.08333333333333
1611,-165,-206.25,-86.25,-93.75,-15,-123.75,-150,-135,-108.33333333333333
1612,-142.5,-191.25,-78.75,-90,-11.25,-120,-150,-135,-102.08333333333333
1613,-138.75,-195,-82.5,-93.75,-15,-123.75,-150,-138.75,-104.16666666666667
1614,-157.5,-206.25,-86.25,-90,-15,-127.5,-153.75,-138.75,-108.33333333333333
1615,-138.75,-202.5,-97.5,-97.5,-22.5,-131.25,-157.5,-138.75,-109.58333333333333
1616,-116.25,-187.5,-97.5,-97.5,-22.5,-127.5,-153.75,-138.75,-104.58333333333333
1617,-153.75,-183.75,-78.75,-82.5,-3.75,-108.75,-135,-116.25,-95.83333333333333
1618,-157.5,-180,-75,-78.75,0,-105,-131.25,-112.5,-93.33333333333333
1619,-112.5,-183.75,-90,-93.75,-15,-123.75,-146.25,-127.5,-99.16666666666667
1620,-112.5,-206.25,-101.25,-108.75,-33.75,-135,-161.25,-142.5,-111.25
1621,-153.75,-225,-101.25,-112.5,-33.75,-138.75,-161.25,-146.25,-119.16666666666667
1622,-161.25,-213.75,-90,-105,-22.5,-123.75,-146.25,-135,-110.83333333333333
1623,-153.75,-191.25,-78.75,-90,-7.5,-112.5,-138.75,-123.75,-99.58333333333333
1624,-150,-191.25,-78.75,-90,-11.25,-120,-142.5,-127.5,-101.25
1625,-153.75,-195,-86.25,-93.75,-18.75,-123.75,-146.25,-131.25,-105.41666666666667
1626,-150,-183.75,-82.5,-90,-11.25,-120,-142.5,-120,-100.0
1627,-123.75,-176.25,-90,-90,-15,-123.75,-146.25,-123.75,-98.75
1628,-123.75,-202.5,-105,-108.75,-33.75,-142.5,-165,-142.5,-113.75
1629,-157.5,-228.75,-112.5,-120,-41.25,-150,-168.75,-146.25,-125.0
1630,-165,-221.25,-108.75,-116.25,-41.25,-146.25,-165,-142.5,-122.91666666666667
1631,-150,-206.25,-101.25,-116.25,-37.5,-146.25,-165,-142.5,-118.33333333333333
1632,-157.5,-213.75,-101.25,-120,-41.25,-142.5,-165,-146.25,-120.83333333333333
1633,-187.5,-240,-108.75,-127.5,-45,-142.5,-168.75,-153.75,-130.41666666666666
1634,-198.75,-240,-105,-123.75,-41.25,-138.75,-165,-150,-129.16666666666666
1635,-168.75,-210,-93.75,-112.5,-33.75,-127.5,-153.75,-135,-115.0
1636,-142.5,-195,-101.25,-112.5,-33.75,-131.25,-153.75,-138.75,-112.08333333333333
1637,-142.5,-191.25,-101.25,-108.75,-33.75,-131.25,-153.75,-138.75,-111.25
1638,-150,-187.5,-97.5,-105,-30,-131.25,-153.75,-135,-110.0
1639,-146.25,-202.5,-108.75,-116.25,-41.25,-142.5,-165,-142.5,-118.33333333333333
1640,-138.75,-228.75,-116.25,-123.75,-45,-146.25,-165,-146.25,-123.33333333333333
1641,-153.75,-247.5,-120,-127.5,-48.75,-150,-168.75,-146.25,-129.16666666666666
1642,-191.25,-236.25,-116.25,-123.75,-45,-146.25,-165,-146.25,-130.0
1643,-210,-225,-105,-112.5,-33.75,-135,-153.75,-135,-123.33333333333333
1644,-195,-240,-112.5,-123.75,-45,-142.5,-165,-146.25,-130.0
1645,-165,-247.5,-127.5,-142.5,-63.75,-157.5,-183.75,-161.25,-138.75
1646,-161.25,-236.25,-116.25,-138.75,-56.25,-153.75,-176.25,-157.5,-132.91666666666666
1647,-180,-225,-108.75,-127.5,-45,-142.5,-165,-146.25,-126.66666666666667
1648,-180,-232.5,-112.5,-131.25,-52.5,-150,-172.5,-153.75,-131.66666666666666
1649,-157.5,-232.5,-123.75,-138.75,-60,-157.5,-180,-161.25,-134.58333333333334
1650,-176.25,-228.75,-120,-131.25,-52.5,-153.75,-172.5,-157.5,-132.5
1651,-202.5,-228.75,-112.5,-120,-41.25,-146.25,-165,-146.25,-129.16666666666666
1652,-180,-225,-116.25,-127.5,-52.5,-153.75,-172.5,-150,-130.83333333333334
1653,-161.25,-236.25,-127.5,-138.75,-60,-161.25,-180,-157.5,-135.83333333333334
1654,-191.25,-262.5,-135,-146.25,-67.5,-168.75,-191.25,-168.75,-147.91666666666666
1655,-213.75,-273.75,-135,-146.25,-67.5,-168.75,-187.5,-165,-150.83333333333334
1656,-202.5,-270,-135,-153.75,-71.25,-172.5,-191.25,-168.75,-151.66666666666666
1657,-202.5,-270,-135,-157.5,-71.25,-172.5,-195,-172.5,-152.91666666666666
1658,-217.5,-277.5,-138.75,-161.25,-75,-176.25,-198.75,-176.25,-157.91666666666666
1659,-217.5,-273.75,-131.25,-153.75,-71.25,-168.75,-195,-172.5,-153.75
1660,-221.25,-277.5,-131.25,-150,-71.25,-168.75,-191.25,-172.5,-153.75
1661,-236.25,-277.5,-131.25,-150,-71.25,-168.75,-195,-172.5,-155.83333333333334
1662,-240,-277.5,-135,-150,-71.25,-168.75,-191.25,-165,-155.41666666666666
1663,-240,-285,-138.75,-150,-71.25,-168.75,-187.5,-165,-156.25
1664,-217.5,-273.75,-138.75,-150,-71.25,-172.5,-191.25,-165,-153.33333333333334
1665,-210,-270,-138.75,-153.75,-71.25,-172.5,-195,-165,-152.91666666666666
1666,-240,-288.75,-146.25,-157.5,-75,-176.25,-195,-172.5,-161.25
1667,-262.5,-303.75,-142.5,-157.5,-75,-176.25,-195,-165,-164.16666666666666
1668,-251.25,-311.25,-150,-168.75,-82.5,-180,-202.5,-172.5,-168.75
1669,-236.25,-318.75,-153.75,-176.25,-90,-187.5,-210,-183.75,-172.91666666666666
1670,-240,-315,-150,-172.5,-86.25,-183.75,-206.25,-183.75,-170.83333333333334
1671,-236.25,-296.25,-142.5,-161.25,-75,-176.25,-198.75,-176.25,-162.5
1672,-247.5,-300,-142.5,-161.25,-78.75,-180,-202.5,-180,-165.83333333333334
1673,-266.25,-307.5,-146.25,-161.25,-78.75,-183.75,-206.25,-183.75,-170.41666666666666
1674,-262.5,-300,-146.25,-157.5,-78.75,-183.75,-206.25,-180,-168.33333333333334
1675,-255,-300,-150,-157.5,-78.75,-180,-202.5,-176.25,-166.66666666666666
1676,-247.5,-300,-153.75,-161.25,-78.75,-180,-202.5,-176.25,-166.66666666666666
1677,-251.25,-300,-153.75,-161.25,-82.5,-183.75,-202.5,-176.25,-167.91666666666666
1678,-262.5,-292.5,-142.5,-153.75,-71.25,-172.5,-195,-168.75,-162.08333333333334
1679,-270,-296.25,-138.75,-150,-67.5,-168.75,-191.25,-168.75,-161.25
1680,-255,-303.75,-150,-161.25,-78.75,-180,-202.5,-180,-167.91666666666666
1681,-258.75,-300,-138.75,-161.25,-78.75,-180,-206.25,-180,-167.08333333333334
1682,-277.5,-292.5,-123.75,-150,-67.5,-172.5,-198.75,-172.5,-161.66666666666666
1683,-281.25,-285,-116.25,-142.5,-63.75,-165,-187.5,-165,-156.25
1684,-285,-288.75,-120,-146.25,-71.25,-172.5,-191.25,-172.5,-160.83333333333334
1685,-281.25,-281.25,-116.25,-142.5,-63.75,-168.75,-191.25,-168.75,-157.08333333333334
1686,-277.5,-270,-108.75,-135,-56.25,-161.25,-183.75,-165,-150.83333333333334
1687,-285,-285,-112.5,-138.75,-63.75,-165,-191.25,-172.5,-157.08333333333334
1688,-296.25,-307.5,-116.25,-142.5,-67.5,-168.75,-195,-176.25,-163.33333333333334
1689,-285,-300,-112.5,-131.25,-56.25,-157.5,-183.75,-165,-154.58333333333334
1690,-281.25,-285,-97.5,-116.25,-41.25,-142.5,-172.5,-153.75,-143.33333333333334
1691,-285,-296.25,-101.25,-123.75,-48.75,-153.75,-183.75,-161.25,-150.41666666666666
1692,-281.25,-311.25,-112.5,-135,-60,-165,-191.25,-172.5,-158.75
1693,-281.25,-311.25,-105,-131.25,-56.25,-157.5,-187.5,-168.75,-155.41666666666666
1694,-300,-315,-93.75,-127.5,-52.5,-153.75,-180,-165,-154.16666666666666
1695,-315,-307.5,-86.25,-116.25,-41.25,-146.25,-176.25,-161.25,-150.0
1696,-303.75,-285,-78.75,-105,-33.75,-138.75,-168.75,-150,-140.41666666666666
1697,-288.75,-266.25,-82.5,-105,-30,-135,-165,-146.25,-135.41666666666666
1698,-296.25,-270,-93.75,-108.75,-33.75,-138.75,-168.75,-150,-140.0
1699,-296.25,-262.5,-105,-112.5,-33.75,-138.75,-165,-142.5,-139.58333333333334
1700,-266.25,-240,-112.5,-112.5,-33.75,-135,-157.5,-135,-132.5
1701,-240,-236.25,-123.75,-116.25,-30,-131.25,-153.75,-131.25,-129.16666666666666
1702,-240,-251.25,-142.5,-123.75,-37.5,-135,-157.5,-127.5,-135.0
1703,-258.75,-277.5,-161.25,-138.75,-48.75,-142.5,-165,-138.75,-147.91666666666666
1704,-262.5,-296.25,-176.25,-153.75,-60,-153.75,-180,-153.75,-159.58333333333334
1705,-243.75,-288.75,-172.5,-153.75,-60,-153.75,-176.25,-150,-155.41666666666666
1706,-243.75,-288.75,-168.75,-153.75,-56.25,-150,-172.5,-146.25,-153.33333333333334
1707,-258.75,-296.25,-172.5,-161.25,-63.75,-157.5,-176.25,-150,-159.58333333333334
1708,-277.5,-307.5,-180,-168.75,-71.25,-165,-183.75,-153.75,-167.5
1709,-281.25,-311.25,-183.75,-168.75,-71.25,-161.25,-183.75,-153.75,-168.33333333333334
1710,-255,-311.25,-198.75,-180,-82.5,-172.5,-195,-161.25,-172.91666666666666
1711,-240,-315,-206.25,-191.25,-97.5,-191.25,-206.25,-172.5,-180.0
1712,-266.25,-322.5,-198.75,-191.25,-97.5,-191.25,-206.25,-172.5,-182.91666666666666
1713,-296.25,-330,-195,-187.5,-93.75,-183.75,-202.5,-168.75,-184.16666666666666
1714,-296.25,-330,-191.25,-187.5,-90,-180,-198.75,-165,-182.08333333333334
1715,-300,-341.25,-187.5,-187.5,-93.75,-183.75,-202.5,-172.5,-185.41666666666666
1716,-307.5,-356.25,-183.75,-187.5,-90,-183.75,-206.25,-172.5,-187.5
1717,-303.75,-360,-180,-187.5,-90,-183.75,-206.25,-176.25,-187.5
1718,-300,-356.25,-176.25,-187.5,-90,-183.75,-206.25,-180,-186.66666666666666
1719,-303.75,-352.5,-176.25,-187.5,-93.75,-183.75,-206.25,-180,-187.08333333333334
1720,-315,-356.25,-176.25,-187.5,-93.75,-187.5,-210,-183.75,-190.0
1721,-315,-356.25,-172.5,-187.5,-97.5,-195,-213.75,-187.5,-191.66666666666666
1722,-322.5,-348.75,-172.5,-183.75,-97.5,-191.25,-213.75,-183.75,-190.41666666666666
1723,-318.75,-345,-176.25,-183.75,-97.5,-191.25,-210,-180,-189.16666666666666
1724,-318.75,-360,-180,-191.25,-105,-198.75,-217.5,-187.5,-195.41666666666666
1725,-337.5,-386.25,-183.75,-202.5,-112.5,-210,-232.5,-202.5,-207.5
1726,-341.25,-393.75,-187.5,-206.25,-116.25,-213.75,-236.25,-202.5,-210.83333333333334
1727,-345,-397.5,-187.5,-210,-120,-213.75,-236.25,-202.5,-212.5
1728,-352.5,-412.5,-191.25,-217.5,-127.5,-221.25,-243.75,-213.75,-220.0
1729,-356.25,-420,-191.25,-221.25,-131.25,-225,-247.5,-221.25,-223.75
1730,-363.75,-427.5,-187.5,-221.25,-135,-228.75,-251.25,-221.25,-226.25
1731,-371.25,-423.75,-183.75,-217.5,-131.25,-225,-247.5,-221.25,-224.58333333333334
1732,-367.5,-420,-187.5,-217.5,-131.25,-221.25,-247.5,-217.5,-223.33333333333334
1733,-348.75,-405,-191.25,-210,-127.5,-217.5,-243.75,-213.75,-217.5
1734,-341.25,-390,-187.5,-206.25,-123.75,-217.5,-243.75,-213.75,-213.75
1735,-341.25,-393.75,-191.25,-213.75,-127.5,-225,-247.5,-217.5,-217.5
1736,-337.5,-401.25,-198.75,-221.25,-135,-228.75,-251.25,-221.25,-221.66666666666666
1737,-345,-408.75,-198.75,-221.25,-135,-228.75,-251.25,-221.25,-223.33333333333334
1738,-345,-412.5,-198.75,-221.25,-135,-228.75,-251.25,-221.25,-223.75
1739,-360,-420,-195,-221.25,-135,-225,-247.5,-217.5,-224.58333333333334
1740,-405,-435,-187.5,-217.5,-127.5,-217.5,-240,-213.75,-227.08333333333334
1741,-416.25,-435,-183.75,-213.75,-127.5,-213.75,-236.25,-213.75,-226.66666666666666
1742,-375,-423.75,-195,-225,-135,-225,-247.5,-225,-227.91666666666666
1743,-345,-416.25,-195,-225,-138.75,-225,-251.25,-232.5,-225.41666666666666
1744,-337.5,-412.5,-195,-221.25,-135,-225,-247.5,-225,-222.08333333333334
1745,-326.25,-393.75,-187.5,-210,-127.5,-217.5,-240,-213.75,-212.91666666666666
1746,-330,-386.25,-180,-198.75,-120,-213.75,-232.5,-206.25,-207.5
1747,-337.5,-405,-195,-210,-127.5,-221.25,-240,-213.75,-216.66666666666666
1748,-356.25,-427.5,-202.5,-217.5,-131.25,-225,-247.5,-221.25,-225.41666666666666
1749,-382.5,-435,-198.75,-221.25,-135,-225,-247.5,-225,-230.0
1750,-401.25,-450,-198.75,-221.25,-135,-225,-243.75,-225,-233.33333333333334
1751,-393.75,-465,-202.5,-225,-138.75,-225,-247.5,-225,-235.83333333333334
1752,-367.5,-446.25,-191.25,-213.75,-131.25,-221.25,-243.75,-217.5,-225.83333333333334
1753,-348.75,-435,-172.5,-198.75,-123.75,-225,-251.25,-225,-220.0
1754,-341.25,-450,-150,-180,-123.75,-232.5,-270,-247.5,-221.66666666666666
1755,-337.5,-457.5,-108.75,-142.5,-116.25,-243.75,-285,-270,-217.91666666666666
1756,-345,-468.75,-52.5,-97.5,-112.5,-262.5,-307.5,-296.25,-215.83333333333334
1757,-337.5,-480,-11.25,-63.75,-116.25,-285,-341.25,-333.75,-218.75
1758,-322.5,-487.5,26.25,-33.75,-123.75,-311.25,-371.25,-360,-220.41666666666666
1759,-345,-502.5,71.25,15,-101.25,-303.75,-367.5,-348.75,-209.16666666666666
1760,-341.25,-480,108.75,78.75,-52.5,-270,-333.75,-322.5,-179.16666666666666
1761,-292.5,-412.5,153.75,161.25,15,-213.75,-288.75,-281.25,-128.75
1762,-247.5,-356.25,183.75,232.5,75,-161.25,-240,-240,-83.75
1763,-210,-315,198.75,285,135,-105,-183.75,-191.25,-42.916666666666664
1764,-150,-251.25,206.25,330,191.25,-41.25,-120,-131.25,3.75
1765,-97.5,-176.25,213.75,375,255,37.5,-41.25,-56.25,56.666666666666664
1766,-45,-82.5,217.5,442.5,348.75,146.25,67.5,52.5,127.5
1767,18.75,30,195,495,446.25,262.5,191.25,168.75,200.83333333333334
1768,86.25,153.75,157.5,521.25,532.5,378.75,315,288.75,270.4166666666667
