samplenr,I,II,V1,V2,V3,V4,V5,V6,measurement
0,131.25,-97.5,-78.75,-101.25,-157.5,-161.25,-131.25,-67.5,-73.75
1,82.5,-116.25,-67.5,-97.5,-153.75,-153.75,-123.75,-63.75,-77.08333333333333
2,22.5,-127.5,-52.5,-97.5,-153.75,-153.75,-123.75,-67.5,-83.75
3,52.5,-116.25,-63.75,-108.75,-168.75,-165,-135,-75,-86.66666666666667
4,56.25,-116.25,-71.25,-112.5,-172.5,-168.75,-135,-75,-88.33333333333333
5,18.75,-116.25,-71.25,-108.75,-168.75,-168.75,-138.75,-75,-92.08333333333333
6,-11.25,-105,-63.75,-112.5,-168.75,-165,-131.25,-75,-92.5
7,-18.75,-78.75,-67.5,-120,-172.5,-165,-135,-75,-92.5
8,-15,-67.5,-67.5,-123.75,-180,-168.75,-138.75,-78.75,-93.33333333333333
9,-7.5,-71.25,-75,-131.25,-183.75,-172.5,-146.25,-90,-97.5
10,7.5,-63.75,-75,-127.5,-183.75,-172.5,-146.25,-90,-94.58333333333333
11,82.5,-48.75,-86.25,-135,-191.25,-187.5,-161.25,-101.25,-92.08333333333333
12,138.75,-56.25,-78.75,-131.25,-187.5,-195,-161.25,-101.25,-85.83333333333333
13,105,-90,-41.25,-101.25,-161.25,-165,-131.25,-75,-73.33333333333333
14,41.25,-123.75,-26.25,-90,-150,-153.75,-120,-63.75,-76.25
15,7.5,-142.5,-37.5,-108.75,-168.75,-172.5,-135,-78.75,-92.91666666666667
16,3.75,-161.25,-37.5,-105,-172.5,-172.5,-135,-82.5,-95.83333333333333
17,-22.5,-183.75,-30,-101.25,-165,-165,-131.25,-78.75,-97.5
18,-48.75,-168.75,-26.25,-97.5,-161.25,-157.5,-127.5,-75,-95.83333333333333
19,-56.25,-142.5,-37.5,-108.75,-168.75,-168.75,-138.75,-86.25,-100.83333333333333
20,-56.25,-161.25,-56.25,-123.75,-183.75,-183.75,-153.75,-101.25,-113.33333333333333
21,-52.5,-180,-60,-131.25,-191.25,-195,-165,-105,-120.0
22,-15,-150,-67.5,-138.75,-202.5,-202.5,-176.25,-112.5,-118.33333333333333
23,56.25,-131.25,-82.5,-157.5,-217.5,-221.25,-195,-127.5,-119.58333333333333
24,82.5,-161.25,-97.5,-168.75,-232.5,-240,-206.25,-142.5,-129.58333333333334
25,30,-187.5,-90,-168.75,-236.25,-243.75,-210,-146.25,-139.16666666666666
26,-7.5,-172.5,-78.75,-165,-232.5,-240,-206.25,-150,-139.16666666666666
27,7.5,-135,-82.5,-165,-232.5,-240,-206.25,-150,-133.75
28,11.25,-120,-93.75,-176.25,-243.75,-247.5,-213.75,-153.75,-137.5
29,-18.75,-138.75,-90,-172.5,-240,-243.75,-210,-150,-140.41666666666666
30,-45,-146.25,-71.25,-153.75,-221.25,-225,-195,-131.25,-132.08333333333334
31,-26.25,-120,-48.75,-135,-195,-195,-165,-105,-110.0
32,0,-127.5,-45,-123.75,-183.75,-183.75,-157.5,-93.75,-101.66666666666667
33,3.75,-157.5,-67.5,-146.25,-206.25,-202.5,-180,-116.25,-119.16666666666667
34,-15,-180,-75,-153.75,-213.75,-213.75,-191.25,-123.75,-129.58333333333334
35,18.75,-202.5,-82.5,-157.5,-225,-225,-195,-131.25,-133.33333333333334
36,45,-228.75,-101.25,-172.5,-243.75,-243.75,-210,-146.25,-144.58333333333334
37,3.75,-247.5,-101.25,-180,-247.5,-255,-217.5,-153.75,-155.41666666666666
38,-18.75,-240,-82.5,-168.75,-240,-247.5,-213.75,-150,-151.25
39,33.75,-172.5,-56.25,-142.5,-217.5,-221.25,-187.5,-123.75,-120.83333333333333
40,63.75,-108.75,-48.75,-135,-206.25,-206.25,-176.25,-116.25,-103.75
41,18.75,-97.5,-48.75,-138.75,-206.25,-206.25,-176.25,-116.25,-107.91666666666667
42,-67.5,-116.25,-52.5,-142.5,-206.25,-202.5,-168.75,-112.5,-118.75
43,-101.25,-135,-71.25,-142.5,-206.25,-202.5,-172.5,-120,-127.91666666666667
44,-60,-120,-71.25,-146.25,-206.25,-202.5,-180,-123.75,-123.33333333333333
45,-15,-131.25,-63.75,-138.75,-202.5,-198.75,-176.25,-120,-116.25
46,0,-183.75,-41.25,-112.5,-187.5,-187.5,-165,-108.75,-109.58333333333333
47,45,-232.5,-22.5,-93.75,-187.5,-202.5,-183.75,-127.5,-111.66666666666667
48,78.75,-270,11.25,-67.5,-202.5,-240,-225,-168.75,-120.41666666666667
49,33.75,-303.75,82.5,-11.25,-206.25,-270,-255,-202.5,-125.83333333333333
50,-7.5,-333.75,165,63.75,-191.25,-288.75,-285,-236.25,-123.75
51,22.5,-326.25,232.5,123.75,-191.25,-315,-318.75,-270,-115.83333333333333
52,67.5,-296.25,307.5,195,-165,-311.25,-318.75,-270,-87.91666666666667
53,60,-273.75,382.5,288.75,-105,-277.5,-296.25,-247.5,-52.083333333333336
54,33.75,-217.5,435,386.25,-37.5,-228.75,-258.75,-221.25,-12.083333333333334
55,45,-123.75,476.25,465,33.75,-172.5,-210,-176.25,37.5
56,127.5,-22.5,502.5,536.25,108.75,-97.5,-142.5,-108.75,100.41666666666667
57,202.5,60,506.25,585,168.75,-30,-78.75,-52.5,151.25
58,251.25,131.25,513.75,648.75,240,45,-3.75,11.25,204.16666666666666
59,345,202.5,498.75,716.25,337.5,153.75,101.25,112.5,274.1666666666667
60,420,273.75,435,708.75,420,266.25,225,225,330.4166666666667
61,412.5,363.75,345,645,502.5,405,375,363.75,379.1666666666667
62,431.25,487.5,217.5,570,603.75,573.75,547.5,517.5,438.75
63,483.75,637.5,112.5,517.5,723.75,753.75,727.5,678.75,515.0
64,521.25,836.25,48.75,495,858.75,948.75,926.25,855,610.0
65,510,1068.75,-78.75,363.75,937.5,1132.5,1136.25,1057.5,680.8333333333334
66,483.75,1353.75,-311.25,71.25,926.25,1282.5,1338.75,1271.25,712.9166666666666
67,495,1575,-577.5,-273.75,885,1406.25,1518.75,1458.75,720.8333333333334
68,525,1653.75,-825,-585,851.25,1522.5,1668.75,1601.25,712.5
69,517.5,1698.75,-1008.75,-783.75,877.5,1661.25,1815,1725,722.5
70,476.25,1725,-1087.5,-862.5,952.5,1796.25,1931.25,1792.5,747.0833333333334
71,450,1676.25,-1102.5,-892.5,1016.25,1878.75,1980,1781.25,754.1666666666666
72,431.25,1556.25,-1170,-960,1020,1882.5,1957.5,1728.75,716.25
73,326.25,1380,-1248.75,-1046.25,945,1792.5,1856.25,1627.5,625.8333333333334
74,195,1166.25,-1233.75,-1065,802.5,1571.25,1620,1413.75,496.6666666666667
75,105,926.25,-1147.5,-1050,588.75,1233.75,1282.5,1117.5,339.5833333333333
76,37.5,671.25,-1095,-1110,277.5,832.5,918.75,832.5,151.66666666666666
77,-37.5,446.25,-1083.75,-1230,-116.25,382.5,532.5,551.25,-61.666666666666664
78,-146.25,292.5,-1038.75,-1308.75,-446.25,0,206.25,311.25,-236.66666666666666
79,-210,191.25,-967.5,-1286.25,-596.25,-210,-3.75,131.25,-327.9166666666667
80,-183.75,116.25,-896.25,-1166.25,-570,-258.75,-101.25,18.75,-337.9166666666667
81,-127.5,63.75,-832.5,-1016.25,-483.75,-243.75,-142.5,-48.75,-314.5833333333333
82,-93.75,45,-761.25,-873.75,-405,-213.75,-135,-63.75,-277.9166666666667
83,-3.75,67.5,-690,-765,-356.25,-180,-112.5,-48.75,-232.08333333333334
84,67.5,45,-615,-675,-330,-168.75,-97.5,-33.75,-200.83333333333334
85,3.75,-52.5,-525,-566.25,-285,-142.5,-78.75,-26.25,-185.83333333333334
86,-41.25,-82.5,-431.25,-438.75,-213.75,-93.75,-41.25,0,-149.16666666666666
87,-11.25,-37.5,-352.5,-322.5,-138.75,-45,0,33.75,-97.08333333333333
88,15,-7.5,-292.5,-240,-86.25,-15,22.5,52.5,-61.25
89,22.5,22.5,-240,-187.5,-67.5,-11.25,18.75,41.25,-44.583333333333336
90,-15,33.75,-195,-146.25,-52.5,-15,7.5,26.25,-39.583333333333336
91,-52.5,22.5,-150,-112.5,-45,-7.5,3.75,18.75,-35.833333333333336
92,0,48.75,-120,-97.5,-52.5,-15,-7.5,11.25,-25.833333333333332
93,56.25,78.75,-101.25,-82.5,-48.75,-18.75,-11.25,7.5,-13.333333333333334
94,78.75,75,-82.5,-52.5,-26.25,-15,-11.25,11.25,-2.5
95,135,18.75,-71.25,-33.75,-26.25,-30,-26.25,3.75,-3.3333333333333335
96,172.5,-56.25,-67.5,-33.75,-41.25,-48.75,-37.5,-7.5,-13.333333333333334
97,105,-120,-41.25,-18.75,-41.25,-52.5,-37.5,-7.5,-23.75
98,41.25,-165,-48.75,-33.75,-67.5,-75,-60,-33.75,-49.166666666666664
99,56.25,-138.75,-37.5,-30,-67.5,-86.25,-71.25,-41.25,-46.25
100,48.75,-112.5,-22.5,-22.5,-63.75,-82.5,-71.25,-41.25,-40.833333333333336
101,22.5,-112.5,-26.25,-26.25,-71.25,-86.25,-75,-41.25,-46.25
102,11.25,-90,-18.75,-18.75,-67.5,-75,-67.5,-33.75,-40.0
103,-11.25,-56.25,-18.75,-11.25,-60,-67.5,-67.5,-41.25,-37.083333333333336
104,3.75,-18.75,-22.5,0,-56.25,-75,-78.75,-48.75,-32.916666666666664
105,56.25,3.75,-33.75,-18.75,-71.25,-97.5,-97.5,-63.75,-35.833333333333336
106,82.5,0,-45,-33.75,-90,-112.5,-112.5,-78.75,-43.333333333333336
107,112.5,-45,-45,-30,-97.5,-116.25,-112.5,-75,-45.416666666666664
108,142.5,-120,-37.5,-22.5,-86.25,-108.75,-101.25,-63.75,-44.166666666666664
109,108.75,-165,-11.25,-3.75,-71.25,-93.75,-86.25,-48.75,-41.25
110,78.75,-150,11.25,15,-67.5,-82.5,-67.5,-30,-32.5
111,71.25,-131.25,11.25,15,-67.5,-82.5,-75,-30,-32.083333333333336
112,71.25,-127.5,-11.25,7.5,-75,-101.25,-93.75,-52.5,-42.5
113,56.25,-123.75,-18.75,22.5,-60,-93.75,-86.25,-48.75,-39.166666666666664
114,11.25,-123.75,0,41.25,-41.25,-75,-71.25,-41.25,-33.333333333333336
115,0,-90,11.25,41.25,-45,-75,-75,-45,-30.833333333333332
116,56.25,-30,11.25,33.75,-48.75,-75,-82.5,-48.75,-20.416666666666668
117,112.5,0,-11.25,18.75,-56.25,-82.5,-93.75,-60,-19.166666666666668
118,120,18.75,-22.5,18.75,-63.75,-97.5,-101.25,-63.75,-21.25
119,135,-15,-45,-3.75,-90,-123.75,-123.75,-78.75,-38.333333333333336
120,153.75,-82.5,-56.25,-30,-112.5,-138.75,-135,-86.25,-54.166666666666664
121,112.5,-123.75,-33.75,-33.75,-112.5,-127.5,-120,-71.25,-56.666666666666664
122,71.25,-142.5,-15,3.75,-82.5,-105,-101.25,-56.25,-47.5
123,105,-138.75,-3.75,22.5,-67.5,-90,-82.5,-45,-33.333333333333336
124,120,-127.5,7.5,22.5,-67.5,-78.75,-67.5,-26.25,-24.166666666666668
125,86.25,-131.25,11.25,37.5,-48.75,-67.5,-56.25,-18.75,-20.833333333333332
126,56.25,-105,15,63.75,-22.5,-48.75,-45,-15,-11.25
127,37.5,-45,15,67.5,-22.5,-48.75,-48.75,-18.75,-7.083333333333333
128,63.75,18.75,11.25,71.25,-18.75,-56.25,-60,-26.25,0.4166666666666667
129,93.75,18.75,0,60,-26.25,-60,-63.75,-26.25,-0.4166666666666667
130,90,-18.75,7.5,67.5,-22.5,-52.5,-48.75,-7.5,1.6666666666666667
131,127.5,-45,-3.75,67.5,-22.5,-52.5,-52.5,-11.25,0.8333333333333334
132,161.25,-78.75,-11.25,60,-30,-63.75,-63.75,-26.25,-5.833333333333333
133,131.25,-105,7.5,78.75,-15,-48.75,-48.75,-15,-1.6666666666666667
134,101.25,-97.5,22.5,93.75,-3.75,-37.5,-33.75,0,5.0
135,105,-86.25,18.75,82.5,-15,-45,-41.25,-7.5,1.25
136,135,-67.5,15,78.75,-18.75,-52.5,-45,-3.75,4.583333333333333
137,135,-45,15,78.75,-15,-48.75,-45,-7.5,7.5
138,93.75,-18.75,22.5,78.75,-22.5,-48.75,-48.75,-11.25,5.0
139,67.5,3.75,22.5,86.25,-11.25,-37.5,-33.75,7.5,11.666666666666666
140,82.5,22.5,15,90,0,-22.5,-26.25,11.25,19.166666666666668
141,116.25,33.75,3.75,93.75,7.5,-26.25,-33.75,0,21.666666666666668
142,135,3.75,-11.25,90,-3.75,-41.25,-52.5,-18.75,11.25
143,168.75,-33.75,-18.75,82.5,-11.25,-52.5,-63.75,-26.25,5.0
144,198.75,-75,-7.5,93.75,-3.75,-41.25,-48.75,-11.25,11.666666666666666
145,161.25,-105,3.75,105,7.5,-30,-30,3.75,12.916666666666666
146,120,-82.5,7.5,105,7.5,-30,-30,3.75,11.25
147,123.75,-56.25,0,101.25,3.75,-33.75,-37.5,-7.5,10.416666666666666
148,142.5,-48.75,0,112.5,15,-22.5,-26.25,0,19.166666666666668
149,131.25,-33.75,11.25,116.25,22.5,-7.5,-11.25,15,27.083333333333332
150,120,7.5,15,127.5,30,0,-3.75,22.5,35.416666666666664
151,123.75,33.75,15,138.75,45,11.25,3.75,30,44.583333333333336
152,123.75,11.25,11.25,135,41.25,11.25,3.75,30,40.833333333333336
153,120,-7.5,11.25,127.5,22.5,0,-3.75,22.5,32.5
154,142.5,7.5,3.75,131.25,30,0,-7.5,26.25,37.083333333333336
155,206.25,7.5,-11.25,131.25,30,-7.5,-15,22.5,40.416666666666664
156,255,11.25,-11.25,120,22.5,-15,-22.5,22.5,42.5
157,221.25,0,-7.5,108.75,11.25,-18.75,-18.75,22.5,35.416666666666664
158,198.75,-22.5,0,135,33.75,-3.75,-3.75,30,40.833333333333336
159,243.75,-15,15,161.25,60,18.75,18.75,48.75,61.25
160,251.25,-18.75,30,168.75,75,45,41.25,63.75,72.91666666666667
161,202.5,-26.25,22.5,168.75,75,41.25,37.5,60,64.58333333333333
162,142.5,18.75,22.5,168.75,75,41.25,37.5,56.25,62.5
163,112.5,63.75,22.5,172.5,82.5,48.75,45,60,67.5
164,142.5,101.25,22.5,191.25,93.75,63.75,56.25,75,82.91666666666667
165,195,116.25,33.75,206.25,108.75,71.25,67.5,90,98.75
166,191.25,56.25,22.5,191.25,93.75,56.25,52.5,78.75,82.5
167,228.75,11.25,11.25,165,63.75,37.5,33.75,67.5,68.75
168,273.75,-7.5,15,161.25,60,33.75,37.5,67.5,71.25
169,232.5,-22.5,22.5,183.75,86.25,45,48.75,75,74.58333333333333
170,206.25,-18.75,37.5,202.5,105,56.25,56.25,82.5,80.83333333333333
171,225,0,37.5,206.25,97.5,60,56.25,86.25,85.41666666666667
172,228.75,11.25,26.25,206.25,97.5,60,60,86.25,86.25
173,202.5,11.25,30,210,97.5,56.25,63.75,86.25,84.16666666666667
174,180,30,48.75,221.25,112.5,75,78.75,101.25,94.16666666666667
175,168.75,67.5,52.5,228.75,123.75,90,93.75,112.5,104.16666666666667
176,191.25,90,41.25,221.25,116.25,82.5,82.5,101.25,102.91666666666667
177,228.75,86.25,22.5,210,105,75,71.25,90,98.75
178,225,52.5,18.75,210,105,71.25,67.5,90,93.33333333333333
179,262.5,41.25,11.25,198.75,86.25,48.75,48.75,78.75,86.25
180,307.5,75,0,180,67.5,33.75,41.25,71.25,86.25
181,285,101.25,11.25,187.5,71.25,41.25,56.25,82.5,92.91666666666667
182,266.25,93.75,26.25,202.5,82.5,52.5,63.75,93.75,97.91666666666667
183,273.75,75,26.25,202.5,78.75,48.75,60,86.25,94.58333333333333
184,266.25,26.25,15,187.5,63.75,37.5,45,67.5,78.75
185,247.5,-15,30,187.5,60,45,56.25,78.75,76.66666666666667
186,232.5,7.5,52.5,195,67.5,60,71.25,90,86.25
187,225,90,56.25,221.25,97.5,75,78.75,101.25,105.0
188,232.5,142.5,37.5,210,93.75,67.5,67.5,93.75,105.0
189,243.75,138.75,26.25,191.25,71.25,52.5,52.5,86.25,95.83333333333333
190,255,120,22.5,176.25,56.25,41.25,45,78.75,88.33333333333333
191,318.75,101.25,15,165,37.5,33.75,45,78.75,88.33333333333333
192,375,71.25,26.25,180,45,30,45,86.25,95.41666666666667
193,326.25,22.5,33.75,187.5,52.5,26.25,37.5,78.75,85.0
194,251.25,-11.25,41.25,176.25,41.25,18.75,33.75,71.25,69.16666666666667
195,247.5,3.75,52.5,176.25,33.75,22.5,41.25,78.75,72.91666666666667
196,247.5,3.75,60,183.75,41.25,26.25,48.75,86.25,77.5
197,210,-26.25,60,183.75,41.25,22.5,41.25,78.75,67.91666666666667
198,165,-15,67.5,180,41.25,26.25,45,82.5,65.83333333333333
199,157.5,37.5,75,183.75,48.75,37.5,52.5,86.25,75.41666666666667
200,191.25,60,63.75,172.5,37.5,26.25,37.5,75,73.75
201,225,45,60,161.25,26.25,7.5,18.75,63.75,67.5
202,240,60,67.5,165,22.5,3.75,11.25,60,70.0
203,285,75,41.25,138.75,-3.75,-26.25,-15,33.75,58.75
204,315,37.5,26.25,112.5,-26.25,-52.5,-37.5,15,43.333333333333336
205,255,-3.75,37.5,116.25,-30,-52.5,-33.75,18.75,34.166666666666664
206,202.5,-3.75,52.5,123.75,-22.5,-48.75,-26.25,26.25,33.75
207,225,30,60,123.75,-22.5,-52.5,-30,18.75,39.166666666666664
208,228.75,56.25,56.25,112.5,-33.75,-60,-45,3.75,35.416666666666664
209,183.75,52.5,48.75,90,-45,-71.25,-56.25,-11.25,21.25
210,135,30,63.75,97.5,-30,-52.5,-41.25,0,22.5
211,108.75,7.5,71.25,97.5,-33.75,-48.75,-33.75,3.75,19.166666666666668
212,116.25,3.75,71.25,93.75,-41.25,-56.25,-41.25,0,16.25
213,127.5,3.75,52.5,90,-37.5,-60,-48.75,-7.5,13.333333333333334
214,146.25,0,48.75,75,-48.75,-75,-60,-18.75,7.5
215,198.75,-18.75,41.25,56.25,-71.25,-97.5,-82.5,-33.75,-0.8333333333333334
216,225,-56.25,26.25,33.75,-93.75,-123.75,-105,-52.5,-16.25
217,191.25,-75,33.75,33.75,-93.75,-120,-97.5,-45,-19.166666666666668
218,142.5,-67.5,45,26.25,-93.75,-116.25,-90,-37.5,-21.25
219,131.25,-60,45,26.25,-93.75,-116.25,-90,-41.25,-22.083333333333332
220,161.25,-45,45,33.75,-90,-116.25,-90,-41.25,-15.833333333333334
221,131.25,-41.25,45,18.75,-101.25,-123.75,-93.75,-48.75,-23.75
222,67.5,-37.5,45,15,-97.5,-116.25,-90,-45,-28.75
223,60,-7.5,45,22.5,-86.25,-101.25,-82.5,-37.5,-20.833333333333332
224,90,0,41.25,15,-86.25,-105,-93.75,-48.75,-20.833333333333332
225,97.5,-48.75,33.75,11.25,-93.75,-116.25,-105,-56.25,-30.833333333333332
226,105,-71.25,30,7.5,-93.75,-116.25,-105,-52.5,-32.916666666666664
227,146.25,-75,30,-3.75,-101.25,-123.75,-108.75,-56.25,-32.5
228,191.25,-123.75,18.75,-18.75,-120,-146.25,-127.5,-71.25,-44.166666666666664
229,153.75,-165,18.75,-26.25,-127.5,-157.5,-131.25,-82.5,-57.5
230,112.5,-153.75,30,-26.25,-127.5,-150,-123.75,-75,-57.083333333333336
231,123.75,-123.75,37.5,-18.75,-120,-142.5,-116.25,-67.5,-47.5
232,116.25,-112.5,26.25,-33.75,-131.25,-153.75,-127.5,-78.75,-55.0
233,82.5,-97.5,7.5,-48.75,-150,-168.75,-142.5,-93.75,-67.91666666666667
234,48.75,-71.25,7.5,-60,-153.75,-168.75,-142.5,-101.25,-71.25
235,22.5,-60,11.25,-63.75,-153.75,-165,-138.75,-97.5,-71.66666666666667
236,26.25,-78.75,3.75,-71.25,-161.25,-168.75,-146.25,-101.25,-77.5
237,52.5,-93.75,15,-56.25,-146.25,-157.5,-138.75,-90,-68.33333333333333
238,78.75,-105,26.25,-41.25,-123.75,-142.5,-123.75,-75,-56.25
239,116.25,-165,7.5,-67.5,-150,-168.75,-146.25,-90,-73.75
240,146.25,-206.25,-11.25,-90,-172.5,-191.25,-165,-112.5,-89.16666666666667
241,123.75,-180,-7.5,-86.25,-172.5,-195,-165,-112.5,-88.33333333333333
242,78.75,-150,7.5,-75,-161.25,-180,-150,-97.5,-80.83333333333333
243,56.25,-153.75,3.75,-75,-165,-183.75,-153.75,-101.25,-85.83333333333333
244,67.5,-131.25,-3.75,-82.5,-172.5,-191.25,-165,-112.5,-87.91666666666667
245,63.75,-90,0,-82.5,-172.5,-187.5,-161.25,-108.75,-82.08333333333333
246,11.25,-82.5,-3.75,-86.25,-168.75,-183.75,-157.5,-112.5,-87.08333333333333
247,0,-63.75,-15,-93.75,-172.5,-183.75,-161.25,-116.25,-89.58333333333333
248,26.25,-41.25,-15,-93.75,-168.75,-180,-161.25,-112.5,-82.91666666666667
249,18.75,-82.5,-18.75,-93.75,-168.75,-183.75,-165,-112.5,-89.58333333333333
250,3.75,-146.25,-18.75,-93.75,-172.5,-187.5,-165,-108.75,-98.75
251,75,-150,-30,-101.25,-183.75,-198.75,-172.5,-112.5,-97.08333333333333
252,168.75,-131.25,-33.75,-101.25,-183.75,-202.5,-176.25,-116.25,-86.25
253,142.5,-127.5,-18.75,-93.75,-172.5,-195,-168.75,-108.75,-82.5
254,75,-138.75,-11.25,-93.75,-172.5,-187.5,-157.5,-101.25,-87.5
255,78.75,-150,-15,-93.75,-176.25,-187.5,-157.5,-101.25,-89.16666666666667
256,82.5,-153.75,-18.75,-101.25,-183.75,-195,-165,-108.75,-93.75
257,56.25,-153.75,-11.25,-105,-176.25,-187.5,-157.5,-105,-93.33333333333333
258,30,-157.5,-3.75,-93.75,-165,-172.5,-142.5,-93.75,-88.75
259,22.5,-131.25,-3.75,-90,-153.75,-165,-135,-86.25,-82.5
260,48.75,-78.75,-3.75,-78.75,-150,-161.25,-138.75,-90,-72.5
261,63.75,-60,-22.5,-90,-157.5,-172.5,-157.5,-105,-77.91666666666667
262,78.75,-52.5,-18.75,-90,-153.75,-172.5,-153.75,-101.25,-73.75
263,116.25,-82.5,-22.5,-97.5,-168.75,-180,-157.5,-101.25,-77.08333333333333
264,142.5,-138.75,-33.75,-116.25,-191.25,-198.75,-176.25,-112.5,-91.66666666666667
265,108.75,-161.25,-30,-105,-176.25,-191.25,-165,-108.75,-92.08333333333333
266,63.75,-165,-26.25,-93.75,-161.25,-180,-153.75,-101.25,-90.83333333333333
267,60,-165,-15,-82.5,-153.75,-172.5,-146.25,-93.75,-85.41666666666667
268,78.75,-150,-18.75,-90,-157.5,-176.25,-153.75,-101.25,-85.41666666666667
269,71.25,-131.25,-26.25,-97.5,-165,-183.75,-161.25,-116.25,-90.0
270,26.25,-116.25,-26.25,-105,-180,-187.5,-168.75,-120,-97.5
271,11.25,-63.75,-18.75,-101.25,-176.25,-180,-157.5,-108.75,-88.33333333333333
272,48.75,-3.75,-30,-86.25,-153.75,-168.75,-153.75,-101.25,-72.08333333333333
273,86.25,15,-33.75,-93.75,-157.5,-176.25,-165,-112.5,-70.83333333333333
274,86.25,-7.5,-37.5,-108.75,-172.5,-191.25,-176.25,-120,-80.83333333333333
275,97.5,-60,-41.25,-105,-168.75,-191.25,-176.25,-116.25,-84.58333333333333
276,127.5,-116.25,-48.75,-108.75,-172.5,-195,-176.25,-120,-90.0
277,101.25,-165,-30,-97.5,-165,-183.75,-161.25,-108.75,-90.0
278,67.5,-187.5,-7.5,-71.25,-142.5,-161.25,-138.75,-93.75,-81.66666666666667
279,86.25,-191.25,3.75,-63.75,-127.5,-150,-127.5,-82.5,-72.5
280,108.75,-180,3.75,-63.75,-123.75,-146.25,-123.75,-82.5,-67.5
281,101.25,-135,0,-63.75,-127.5,-146.25,-123.75,-78.75,-63.75
282,37.5,-105,3.75,-63.75,-131.25,-142.5,-123.75,-75,-66.66666666666667
283,7.5,-86.25,7.5,-56.25,-120,-131.25,-112.5,-71.25,-62.5
284,33.75,-78.75,0,-60,-120,-138.75,-123.75,-86.25,-63.75
285,52.5,-90,-11.25,-75,-135,-150,-135,-97.5,-71.25
286,63.75,-90,-18.75,-86.25,-138.75,-157.5,-142.5,-97.5,-74.16666666666667
287,127.5,-60,-41.25,-101.25,-153.75,-172.5,-153.75,-105,-73.33333333333333
288,180,-67.5,-52.5,-108.75,-165,-187.5,-165,-112.5,-75.41666666666667
289,131.25,-93.75,-41.25,-101.25,-161.25,-180,-153.75,-97.5,-77.5
290,97.5,-71.25,-26.25,-86.25,-142.5,-161.25,-135,-82.5,-67.5
291,105,-78.75,-11.25,-78.75,-135,-153.75,-127.5,-82.5,-62.5
292,82.5,-135,-3.75,-75,-135,-153.75,-131.25,-90,-71.25
293,45,-172.5,-3.75,-78.75,-135,-153.75,-135,-93.75,-80.83333333333333
294,30,-165,3.75,-63.75,-120,-142.5,-123.75,-82.5,-73.75
295,41.25,-127.5,15,-48.75,-105,-123.75,-108.75,-67.5,-58.333333333333336
296,60,-86.25,11.25,-56.25,-112.5,-131.25,-120,-75,-56.666666666666664
297,86.25,-52.5,-15,-71.25,-123.75,-150,-138.75,-93.75,-62.083333333333336
298,93.75,-48.75,-30,-86.25,-142.5,-165,-150,-101.25,-70.0
299,127.5,-75,-41.25,-101.25,-157.5,-176.25,-157.5,-101.25,-75.83333333333333
300,168.75,-112.5,-48.75,-105,-157.5,-180,-153.75,-101.25,-76.66666666666667
301,120,-157.5,-33.75,-90,-146.25,-168.75,-138.75,-90,-78.33333333333333
302,86.25,-146.25,-18.75,-78.75,-131.25,-153.75,-123.75,-78.75,-71.66666666666667
303,108.75,-90,-11.25,-71.25,-120,-142.5,-123.75,-78.75,-58.75
304,112.5,-82.5,-15,-78.75,-131.25,-157.5,-142.5,-93.75,-65.41666666666667
305,101.25,-78.75,-18.75,-86.25,-142.5,-165,-146.25,-97.5,-70.41666666666667
306,52.5,-63.75,-18.75,-86.25,-135,-150,-131.25,-86.25,-68.75
307,15,-52.5,-18.75,-90,-142.5,-153.75,-135,-93.75,-74.58333333333333
308,33.75,-45,-26.25,-93.75,-142.5,-153.75,-142.5,-101.25,-74.58333333333333
309,71.25,-71.25,-26.25,-75,-123.75,-135,-127.5,-82.5,-63.333333333333336
310,90,-112.5,-22.5,-82.5,-131.25,-138.75,-127.5,-78.75,-67.08333333333333
311,123.75,-135,-37.5,-97.5,-150,-157.5,-142.5,-90,-76.25
312,165,-150,-41.25,-97.5,-146.25,-165,-146.25,-90,-74.58333333333333
313,142.5,-165,-33.75,-97.5,-150,-172.5,-153.75,-97.5,-80.83333333333333
314,86.25,-168.75,-26.25,-101.25,-153.75,-168.75,-150,-97.5,-86.66666666666667
315,82.5,-142.5,-18.75,-93.75,-146.25,-157.5,-135,-86.25,-77.5
316,108.75,-101.25,-22.5,-86.25,-138.75,-153.75,-127.5,-82.5,-67.08333333333333
317,112.5,-78.75,-26.25,-93.75,-142.5,-157.5,-135,-82.5,-67.08333333333333
318,67.5,-82.5,-18.75,-90,-142.5,-157.5,-135,-86.25,-71.66666666666667
319,30,-75,-18.75,-97.5,-150,-168.75,-146.25,-97.5,-80.41666666666667
320,37.5,-52.5,-33.75,-112.5,-165,-176.25,-157.5,-105,-85.0
321,67.5,-37.5,-56.25,-123.75,-172.5,-183.75,-168.75,-116.25,-87.91666666666667
322,90,-56.25,-60,-127.5,-168.75,-187.5,-172.5,-123.75,-89.58333333333333
323,135,-82.5,-63.75,-131.25,-176.25,-198.75,-187.5,-131.25,-92.91666666666667
324,191.25,-97.5,-67.5,-138.75,-187.5,-213.75,-195,-135,-93.75
325,176.25,-116.25,-48.75,-127.5,-172.5,-198.75,-176.25,-116.25,-86.66666666666667
326,105,-116.25,-30,-105,-157.5,-183.75,-161.25,-105,-83.75
327,60,-120,-33.75,-108.75,-161.25,-183.75,-165,-108.75,-91.25
328,78.75,-142.5,-37.5,-116.25,-168.75,-183.75,-161.25,-105,-92.91666666666667
329,93.75,-146.25,-11.25,-97.5,-146.25,-165,-138.75,-90,-77.91666666666667
330,63.75,-108.75,-3.75,-86.25,-138.75,-153.75,-131.25,-82.5,-71.25
331,52.5,-45,-18.75,-93.75,-142.5,-157.5,-138.75,-86.25,-70.0
332,41.25,-41.25,-45,-120,-165,-180,-161.25,-108.75,-86.66666666666667
333,41.25,-82.5,-52.5,-131.25,-176.25,-195,-176.25,-123.75,-99.58333333333333
334,63.75,-112.5,-52.5,-135,-176.25,-195,-180,-123.75,-101.25
335,116.25,-108.75,-56.25,-138.75,-183.75,-202.5,-187.5,-127.5,-98.75
336,183.75,-123.75,-67.5,-146.25,-195,-213.75,-191.25,-131.25,-98.33333333333333
337,183.75,-157.5,-60,-142.5,-187.5,-206.25,-180,-123.75,-97.08333333333333
338,123.75,-168.75,-52.5,-138.75,-183.75,-198.75,-168.75,-116.25,-100.41666666666667
339,97.5,-161.25,-45,-135,-180,-187.5,-157.5,-101.25,-96.66666666666667
340,90,-161.25,-33.75,-123.75,-168.75,-180,-150,-101.25,-92.08333333333333
341,97.5,-142.5,-37.5,-127.5,-172.5,-183.75,-157.5,-108.75,-92.5
342,97.5,-105,-30,-123.75,-168.75,-180,-153.75,-105,-85.41666666666667
343,52.5,-101.25,-30,-123.75,-168.75,-176.25,-153.75,-105,-89.58333333333333
344,48.75,-90,-45,-138.75,-180,-187.5,-165,-112.5,-96.66666666666667
345,56.25,-86.25,-56.25,-150,-191.25,-202.5,-183.75,-127.5,-104.58333333333333
346,52.5,-93.75,-63.75,-153.75,-198.75,-213.75,-198.75,-142.5,-112.5
347,108.75,-93.75,-78.75,-165,-210,-225,-206.25,-150,-113.33333333333333
348,168.75,-101.25,-93.75,-176.25,-217.5,-240,-217.5,-153.75,-114.58333333333333
349,131.25,-120,-86.25,-183.75,-228.75,-240,-213.75,-150,-121.25
350,63.75,-127.5,-56.25,-183.75,-232.5,-225,-191.25,-127.5,-120.0
351,86.25,-97.5,-41.25,-142.5,-191.25,-198.75,-165,-108.75,-95.41666666666667
352,127.5,-67.5,-45,-135,-183.75,-198.75,-172.5,-116.25,-87.91666666666667
353,101.25,-75,-52.5,-153.75,-198.75,-213.75,-183.75,-123.75,-100.0
354,60,-86.25,-33.75,-131.25,-180,-195,-168.75,-105,-93.33333333333333
355,52.5,-86.25,-30,-120,-168.75,-180,-153.75,-93.75,-86.66666666666667
356,52.5,-90,-37.5,-123.75,-168.75,-176.25,-150,-90,-87.08333333333333
357,48.75,-116.25,-41.25,-131.25,-172.5,-180,-157.5,-97.5,-94.16666666666667
358,71.25,-135,-45,-135,-176.25,-187.5,-165,-105,-97.5
359,105,-161.25,-67.5,-153.75,-195,-213.75,-187.5,-127.5,-111.25
360,131.25,-202.5,-82.5,-172.5,-217.5,-236.25,-210,-142.5,-125.83333333333333
361,127.5,-198.75,-67.5,-157.5,-198.75,-221.25,-191.25,-131.25,-115.41666666666667
362,101.25,-168.75,-48.75,-142.5,-187.5,-202.5,-176.25,-116.25,-104.58333333333333
363,105,-146.25,-56.25,-157.5,-206.25,-217.5,-183.75,-120,-109.16666666666667
364,123.75,-131.25,-63.75,-161.25,-210,-221.25,-187.5,-131.25,-109.16666666666667
365,108.75,-135,-45,-142.5,-191.25,-210,-180,-127.5,-102.5
366,60,-142.5,-33.75,-135,-183.75,-198.75,-172.5,-116.25,-102.5
367,22.5,-116.25,-37.5,-150,-198.75,-198.75,-168.75,-108.75,-106.25
368,37.5,-45,-48.75,-161.25,-206.25,-202.5,-172.5,-112.5,-101.25
369,67.5,-18.75,-75,-172.5,-213.75,-225,-195,-138.75,-107.91666666666667
370,63.75,-60,-97.5,-195,-232.5,-247.5,-217.5,-153.75,-126.66666666666667
371,93.75,-112.5,-90,-187.5,-232.5,-243.75,-217.5,-150,-126.66666666666667
372,153.75,-153.75,-86.25,-176.25,-225,-240,-213.75,-146.25,-120.83333333333333
373,123.75,-187.5,-75,-168.75,-217.5,-232.5,-206.25,-135,-122.08333333333333
374,71.25,-187.5,-60,-157.5,-206.25,-221.25,-191.25,-127.5,-120.0
375,71.25,-165,-67.5,-168.75,-210,-228.75,-202.5,-142.5,-123.75
376,71.25,-176.25,-67.5,-172.5,-221.25,-236.25,-210,-153.75,-129.58333333333334
377,67.5,-176.25,-56.25,-161.25,-210,-228.75,-198.75,-142.5,-122.91666666666667
378,78.75,-135,-45,-146.25,-195,-206.25,-180,-123.75,-105.83333333333333
379,67.5,-116.25,-48.75,-146.25,-187.5,-198.75,-172.5,-116.25,-102.08333333333333
380,56.25,-112.5,-56.25,-153.75,-195,-202.5,-180,-123.75,-107.5
381,63.75,-116.25,-60,-161.25,-198.75,-202.5,-180,-123.75,-108.75
382,63.75,-138.75,-71.25,-161.25,-198.75,-206.25,-183.75,-127.5,-113.75
383,123.75,-123.75,-78.75,-168.75,-213.75,-221.25,-195,-135,-112.5
384,198.75,-112.5,-86.25,-187.5,-232.5,-240,-206.25,-142.5,-112.08333333333333
385,180,-146.25,-78.75,-176.25,-221.25,-236.25,-198.75,-135,-112.5
386,112.5,-157.5,-60,-153.75,-198.75,-213.75,-183.75,-123.75,-108.75
387,90,-138.75,-52.5,-153.75,-198.75,-210,-183.75,-123.75,-107.91666666666667
388,101.25,-135,-56.25,-161.25,-213.75,-225,-187.5,-127.5,-111.66666666666667
389,105,-123.75,-60,-161.25,-210,-221.25,-183.75,-127.5,-109.16666666666667
390,86.25,-105,-48.75,-150,-195,-210,-180,-120,-102.5
391,60,-82.5,-30,-131.25,-176.25,-191.25,-161.25,-105,-90.83333333333333
392,60,-48.75,-33.75,-131.25,-176.25,-187.5,-161.25,-108.75,-87.5
393,75,-41.25,-37.5,-142.5,-187.5,-198.75,-176.25,-123.75,-92.5
394,82.5,-63.75,-30,-138.75,-187.5,-202.5,-180,-120,-93.33333333333333
395,127.5,-75,-33.75,-142.5,-191.25,-210,-183.75,-120,-92.08333333333333
396,172.5,-97.5,-56.25,-176.25,-221.25,-240,-210,-142.5,-107.91666666666667
397,142.5,-112.5,-60,-172.5,-225,-247.5,-217.5,-153.75,-116.25
398,86.25,-116.25,-33.75,-142.5,-195,-217.5,-187.5,-131.25,-104.16666666666667
399,52.5,-131.25,-7.5,-135,-187.5,-206.25,-176.25,-120,-101.25
400,45,-116.25,0,-135,-191.25,-210,-180,-131.25,-102.08333333333333
401,60,-78.75,3.75,-120,-180,-195,-168.75,-116.25,-88.33333333333333
402,60,-75,18.75,-93.75,-150,-165,-135,-82.5,-69.16666666666667
403,52.5,-71.25,26.25,-86.25,-135,-150,-123.75,-71.25,-62.083333333333336
404,63.75,-33.75,30,-90,-138.75,-153.75,-135,-82.5,-60.0
405,82.5,-18.75,22.5,-101.25,-153.75,-172.5,-150,-97.5,-65.41666666666667
406,78.75,-33.75,11.25,-105,-157.5,-176.25,-153.75,-97.5,-70.41666666666667
407,146.25,-15,11.25,-101.25,-157.5,-176.25,-150,-86.25,-58.75
408,198.75,-15,7.5,-116.25,-165,-187.5,-157.5,-93.75,-58.75
409,153.75,-52.5,0,-120,-172.5,-195,-165,-101.25,-72.5
410,97.5,-78.75,3.75,-108.75,-161.25,-187.5,-157.5,-97.5,-76.66666666666667
411,101.25,-78.75,0,-108.75,-161.25,-180,-153.75,-93.75,-75.0
412,142.5,-60,-22.5,-120,-161.25,-176.25,-153.75,-93.75,-71.66666666666667
413,183.75,-15,-45,-131.25,-161.25,-180,-157.5,-97.5,-67.08333333333333
414,153.75,3.75,-56.25,-131.25,-165,-176.25,-146.25,-86.25,-67.08333333333333
415,90,-22.5,-45,-120,-146.25,-150,-123.75,-67.5,-65.0
416,90,-30,-41.25,-112.5,-127.5,-127.5,-105,-52.5,-56.25
417,123.75,-22.5,-63.75,-135,-165,-157.5,-123.75,-63.75,-67.5
418,120,-45,-82.5,-168.75,-202.5,-183.75,-146.25,-86.25,-88.33333333333333
419,153.75,-60,-105,-176.25,-198.75,-195,-165,-108.75,-95.0
420,195,-93.75,-131.25,-187.5,-210,-221.25,-187.5,-123.75,-106.66666666666667
421,172.5,-123.75,-127.5,-195,-228.75,-240,-195,-123.75,-117.91666666666667
422,165,-90,-90,-172.5,-206.25,-210,-165,-97.5,-96.25
423,165,-97.5,-71.25,-157.5,-195,-198.75,-153.75,-86.25,-88.33333333333333
424,153.75,-116.25,-78.75,-165,-202.5,-210,-168.75,-105,-99.16666666666667
425,146.25,-101.25,-90,-172.5,-206.25,-217.5,-183.75,-120,-105.0
426,123.75,-93.75,-67.5,-157.5,-191.25,-202.5,-168.75,-105,-95.83333333333333
427,71.25,-112.5,-56.25,-150,-180,-191.25,-157.5,-97.5,-97.08333333333333
428,71.25,-105,-67.5,-150,-180,-191.25,-157.5,-101.25,-97.91666666666667
429,108.75,-82.5,-67.5,-153.75,-187.5,-198.75,-168.75,-108.75,-95.41666666666667
430,127.5,-60,-78.75,-165,-198.75,-210,-180,-112.5,-97.5
431,176.25,-41.25,-93.75,-183.75,-213.75,-225,-191.25,-120,-99.16666666666667
432,206.25,-82.5,-97.5,-191.25,-228.75,-240,-202.5,-131.25,-107.5
433,168.75,-142.5,-90,-180,-221.25,-236.25,-198.75,-131.25,-114.58333333333333
434,131.25,-142.5,-75,-172.5,-213.75,-228.75,-187.5,-127.5,-112.91666666666667
435,112.5,-138.75,-56.25,-157.5,-202.5,-217.5,-180,-116.25,-106.25
436,97.5,-157.5,-56.25,-165,-210,-228.75,-187.5,-123.75,-114.58333333333333
437,82.5,-135,-75,-187.5,-236.25,-251.25,-210,-146.25,-128.75
438,45,-105,-101.25,-206.25,-247.5,-262.5,-225,-161.25,-140.41666666666666
439,15,-112.5,-105,-206.25,-243.75,-258.75,-225,-157.5,-143.75
440,33.75,-112.5,-90,-198.75,-236.25,-251.25,-221.25,-153.75,-136.66666666666666
441,93.75,-71.25,-86.25,-195,-232.5,-247.5,-213.75,-150,-122.5
442,131.25,-63.75,-78.75,-183.75,-221.25,-232.5,-202.5,-135,-109.58333333333333
443,153.75,-101.25,-75,-187.5,-221.25,-236.25,-202.5,-131.25,-111.25
444,180,-142.5,-97.5,-206.25,-240,-262.5,-225,-150,-127.08333333333333
445,168.75,-183.75,-90,-195,-236.25,-262.5,-221.25,-142.5,-129.16666666666666
446,131.25,-198.75,-67.5,-183.75,-228.75,-251.25,-206.25,-131.25,-126.25
447,105,-198.75,-67.5,-191.25,-240,-258.75,-213.75,-138.75,-133.75
448,93.75,-202.5,-82.5,-202.5,-247.5,-270,-225,-150,-142.91666666666666
449,93.75,-180,-86.25,-206.25,-247.5,-262.5,-221.25,-146.25,-139.58333333333334
450,63.75,-153.75,-82.5,-202.5,-236.25,-251.25,-217.5,-150,-136.66666666666666
451,26.25,-150,-67.5,-180,-217.5,-236.25,-210,-146.25,-131.25
452,30,-142.5,-52.5,-180,-221.25,-236.25,-210,-146.25,-128.75
453,82.5,-131.25,-67.5,-195,-232.5,-236.25,-206.25,-138.75,-125.0
454,97.5,-120,-86.25,-202.5,-232.5,-240,-210,-146.25,-126.66666666666667
455,116.25,-116.25,-105,-213.75,-251.25,-258.75,-232.5,-168.75,-136.66666666666666
456,153.75,-146.25,-123.75,-236.25,-273.75,-281.25,-243.75,-180,-147.91666666666666
457,127.5,-191.25,-120,-232.5,-266.25,-277.5,-232.5,-165,-150.83333333333334
458,101.25,-191.25,-97.5,-213.75,-247.5,-262.5,-221.25,-153.75,-142.91666666666666
459,123.75,-142.5,-90,-198.75,-240,-255,-213.75,-150,-129.58333333333334
460,135,-105,-86.25,-202.5,-232.5,-247.5,-210,-146.25,-121.66666666666667
461,97.5,-138.75,-75,-198.75,-236.25,-251.25,-217.5,-153.75,-130.41666666666666
462,56.25,-187.5,-60,-176.25,-228.75,-255,-225,-161.25,-137.5
463,33.75,-180,-30,-138.75,-217.5,-255,-228.75,-172.5,-132.08333333333334
464,48.75,-168.75,30,-82.5,-202.5,-266.25,-255,-202.5,-122.08333333333333
465,105,-191.25,97.5,-26.25,-206.25,-300,-303.75,-251.25,-119.58333333333333
466,153.75,-228.75,168.75,33.75,-206.25,-333.75,-345,-288.75,-116.25
467,213.75,-258.75,228.75,90,-202.5,-352.5,-367.5,-303.75,-105.83333333333333
468,247.5,-296.25,277.5,150,-191.25,-367.5,-382.5,-315,-97.5
469,217.5,-303.75,333.75,240,-135,-337.5,-356.25,-296.25,-70.83333333333333
470,213.75,-236.25,393.75,341.25,-41.25,-258.75,-285,-232.5,-11.666666666666666
471,217.5,-176.25,438.75,420,26.25,-195,-225,-176.25,36.666666666666664
472,240,-108.75,468.75,480,90,-127.5,-153.75,-112.5,86.25
473,315,11.25,502.5,555,176.25,-37.5,-75,-45,155.83333333333334
474,360,131.25,543.75,660,292.5,78.75,33.75,48.75,238.75
475,360,228.75,517.5,705,393.75,210,165,165,305.0
476,401.25,348.75,412.5,652.5,461.25,333.75,296.25,285,354.5833333333333
477,502.5,502.5,281.25,551.25,517.5,450,423.75,408.75,404.1666666666667
478,592.5,675,176.25,506.25,637.5,618.75,600,570,486.25
479,652.5,828.75,82.5,487.5,776.25,806.25,783.75,731.25,572.0833333333334
480,708.75,978.75,-15,408.75,862.5,963.75,960,892.5,640.0
481,690,1185,-180,210,896.25,1121.25,1158.75,1095,686.25
482,622.5,1402.5,-412.5,-101.25,873.75,1260,1357.5,1308.75,701.25
483,607.5,1552.5,-660,-438.75,825,1372.5,1515,1473.75,694.1666666666666
484,611.25,1646.25,-888.75,-705,817.5,1496.25,1665,1605,694.1666666666666
485,558.75,1665,-1042.5,-862.5,851.25,1627.5,1800,1702.5,700.0
486,468.75,1650,-1080,-926.25,915,1736.25,1886.25,1747.5,710.8333333333334
487,408.75,1638.75,-1087.5,-948.75,971.25,1803.75,1920,1736.25,715.8333333333334
488,371.25,1571.25,-1181.25,-1023.75,952.5,1781.25,1867.5,1661.25,666.6666666666666
489,311.25,1413.75,-1256.25,-1117.5,828.75,1616.25,1691.25,1496.25,553.75
490,228.75,1185,-1222.5,-1136.25,648.75,1338.75,1402.5,1241.25,409.5833333333333
491,198.75,926.25,-1151.25,-1136.25,412.5,990,1061.25,952.5,250.41666666666666
492,191.25,652.5,-1125,-1215,78.75,573.75,690,667.5,57.083333333333336
493,86.25,405,-1087.5,-1316.25,-288.75,146.25,322.5,390,-149.16666666666666
494,-18.75,240,-997.5,-1338.75,-528.75,-146.25,67.5,187.5,-281.6666666666667
495,-33.75,127.5,-918.75,-1260,-585,-270,-78.75,52.5,-329.5833333333333
496,-15,45,-851.25,-1128.75,-532.5,-288.75,-146.25,-30,-327.5
497,-33.75,7.5,-787.5,-986.25,-453.75,-270,-165,-75,-307.0833333333333
498,-67.5,22.5,-712.5,-851.25,-382.5,-236.25,-157.5,-86.25,-274.5833333333333
499,-67.5,56.25,-645,-761.25,-356.25,-217.5,-142.5,-82.5,-246.25
500,-26.25,71.25,-577.5,-671.25,-326.25,-191.25,-120,-60,-211.25
501,30,63.75,-498.75,-551.25,-262.5,-150,-93.75,-45,-167.5
502,97.5,78.75,-412.5,-420,-183.75,-105,-56.25,-11.25,-112.5
503,157.5,60,-333.75,-311.25,-112.5,-56.25,-18.75,22.5,-65.83333333333333
504,217.5,3.75,-277.5,-247.5,-82.5,-45,-11.25,26.25,-46.25
505,225,-33.75,-217.5,-187.5,-56.25,-33.75,0,30,-30.416666666666668
506,187.5,-26.25,-153.75,-123.75,-18.75,-11.25,18.75,45,-9.166666666666666
507,172.5,-26.25,-123.75,-101.25,-15,-15,11.25,37.5,-6.666666666666667
508,165,-56.25,-108.75,-97.5,-26.25,-30,-3.75,22.5,-15.0
509,150,-63.75,-90,-86.25,-33.75,-45,-22.5,3.75,-20.833333333333332
510,112.5,-60,-63.75,-71.25,-33.75,-52.5,-37.5,-15,-24.583333333333332
511,86.25,-37.5,-48.75,-56.25,-26.25,-56.25,-48.75,-30,-24.166666666666668
512,93.75,-11.25,-56.25,-63.75,-45,-75,-67.5,-45,-30.0
513,123.75,-3.75,-63.75,-75,-67.5,-97.5,-90,-60,-37.083333333333336
514,161.25,18.75,-67.5,-78.75,-75,-112.5,-105,-75,-37.083333333333336
515,198.75,7.5,-71.25,-82.5,-82.5,-123.75,-116.25,-86.25,-39.583333333333336
516,232.5,-56.25,-75,-90,-105,-146.25,-135,-97.5,-52.5
517,213.75,-97.5,-67.5,-97.5,-116.25,-150,-127.5,-86.25,-58.75
518,172.5,-97.5,-45,-78.75,-101.25,-138.75,-116.25,-75,-53.333333333333336
519,157.5,-90,-37.5,-67.5,-97.5,-146.25,-123.75,-90,-55.0
520,146.25,-90,-37.5,-63.75,-97.5,-150,-131.25,-97.5,-57.916666666666664
521,127.5,-93.75,-37.5,-60,-97.5,-150,-131.25,-93.75,-59.583333333333336
522,86.25,-108.75,-33.75,-52.5,-93.75,-142.5,-127.5,-93.75,-62.916666666666664
523,56.25,-105,-22.5,-41.25,-78.75,-131.25,-120,-86.25,-58.75
524,90,-67.5,-15,-26.25,-71.25,-127.5,-116.25,-82.5,-46.25
525,153.75,-33.75,-7.5,-18.75,-63.75,-120,-112.5,-78.75,-31.25
526,168.75,-26.25,-22.5,-30,-71.25,-127.5,-123.75,-78.75,-34.583333333333336
527,213.75,-7.5,-37.5,-41.25,-86.25,-142.5,-135,-86.25,-35.833333333333336
528,300,-11.25,-37.5,-41.25,-90,-146.25,-135,-90,-27.916666666666668
529,277.5,-71.25,-37.5,-37.5,-90,-146.25,-131.25,-90,-36.25
530,180,-127.5,-30,-33.75,-90,-150,-131.25,-90,-52.5
531,131.25,-138.75,-22.5,-33.75,-93.75,-157.5,-142.5,-101.25,-62.083333333333336
532,120,-123.75,-18.75,-41.25,-101.25,-161.25,-150,-108.75,-65.0
533,138.75,-90,-18.75,-33.75,-97.5,-157.5,-146.25,-112.5,-57.5
534,161.25,-37.5,0,-7.5,-67.5,-127.5,-112.5,-78.75,-30.0
535,127.5,-33.75,7.5,11.25,-45,-97.5,-86.25,-52.5,-18.75
536,127.5,-45,7.5,7.5,-45,-93.75,-90,-60,-21.25
537,168.75,-15,-3.75,3.75,-52.5,-105,-105,-75,-20.416666666666668
538,187.5,3.75,-18.75,-7.5,-63.75,-112.5,-112.5,-82.5,-22.916666666666668
539,221.25,-26.25,-30,-11.25,-71.25,-123.75,-120,-86.25,-27.5
540,273.75,-82.5,-37.5,-15,-75,-135,-127.5,-90,-32.083333333333336
541,251.25,-116.25,-30,-3.75,-67.5,-131.25,-120,-78.75,-32.916666666666664
542,187.5,-116.25,-15,7.5,-63.75,-123.75,-108.75,-71.25,-33.75
543,180,-97.5,-11.25,7.5,-56.25,-112.5,-97.5,-60,-27.5
544,187.5,-101.25,-11.25,7.5,-56.25,-112.5,-93.75,-60,-26.666666666666668
545,180,-86.25,-11.25,11.25,-56.25,-112.5,-93.75,-67.5,-26.25
546,161.25,-45,-7.5,18.75,-45,-101.25,-90,-63.75,-19.166666666666668
547,150,-7.5,3.75,33.75,-30,-86.25,-78.75,-52.5,-7.5
548,176.25,11.25,7.5,41.25,-22.5,-75,-71.25,-41.25,2.9166666666666665
549,221.25,3.75,-7.5,37.5,-22.5,-78.75,-75,-48.75,3.3333333333333335
550,206.25,-7.5,-15,33.75,-22.5,-82.5,-86.25,-56.25,-3.3333333333333335
551,217.5,-15,-26.25,26.25,-33.75,-101.25,-97.5,-67.5,-10.833333333333334
552,281.25,-48.75,-22.5,30,-37.5,-105,-97.5,-63.75,-7.083333333333333
553,273.75,-90,-18.75,37.5,-30,-93.75,-82.5,-48.75,-5.833333333333333
554,225,-82.5,-3.75,52.5,-18.75,-78.75,-60,-30,0.4166666666666667
555,225,-48.75,0,56.25,-15,-75,-60,-26.25,6.25
556,243.75,-41.25,-18.75,41.25,-26.25,-86.25,-67.5,-33.75,1.25
557,221.25,-48.75,-15,45,-22.5,-82.5,-67.5,-37.5,-0.8333333333333334
558,176.25,-60,3.75,63.75,0,-60,-52.5,-37.5,3.75
559,153.75,-52.5,11.25,75,7.5,-48.75,-48.75,-33.75,7.083333333333333
560,157.5,-22.5,7.5,75,7.5,-48.75,-48.75,-30,10.833333333333334
561,187.5,3.75,-11.25,63.75,3.75,-56.25,-56.25,-37.5,10.833333333333334
562,202.5,11.25,-22.5,52.5,-7.5,-71.25,-67.5,-48.75,5.416666666666667
563,251.25,11.25,-26.25,48.75,-15,-78.75,-71.25,-45,8.333333333333334
564,330,-26.25,-33.75,52.5,-11.25,-78.75,-67.5,-33.75,14.583333333333334
565,341.25,-82.5,-30,67.5,0,-71.25,-56.25,-26.25,15.833333333333334
566,296.25,-75,-11.25,71.25,3.75,-56.25,-45,-15,18.75
567,273.75,-37.5,-3.75,78.75,7.5,-48.75,-37.5,-11.25,24.583333333333332
568,255,-37.5,3.75,97.5,26.25,-45,-37.5,-18.75,27.083333333333332
569,202.5,-45,11.25,97.5,30,-45,-37.5,-18.75,21.666666666666668
570,191.25,-11.25,11.25,108.75,45,-22.5,-18.75,-3.75,33.333333333333336
571,195,11.25,11.25,127.5,67.5,0,3.75,15,47.916666666666664
572,187.5,3.75,3.75,120,60,0,0,15,43.333333333333336
573,213.75,3.75,-3.75,108.75,52.5,-11.25,-15,0,38.75
574,221.25,18.75,-15,108.75,48.75,-18.75,-22.5,-11.25,36.666666666666664
575,266.25,33.75,-22.5,101.25,45,-22.5,-26.25,-11.25,40.416666666666664
576,360,37.5,-33.75,93.75,33.75,-33.75,-30,-11.25,46.25
577,363.75,7.5,-30,105,37.5,-33.75,-26.25,-7.5,46.25
578,296.25,-26.25,-11.25,116.25,45,-22.5,-15,0,42.5
579,288.75,-11.25,-11.25,108.75,37.5,-30,-18.75,-7.5,39.583333333333336
580,311.25,33.75,-18.75,108.75,33.75,-33.75,-26.25,-11.25,44.166666666666664
581,296.25,45,-11.25,116.25,45,-22.5,-18.75,-3.75,49.583333333333336
582,240,52.5,0,131.25,60,-3.75,0,11.25,54.583333333333336
583,217.5,93.75,3.75,138.75,71.25,7.5,11.25,18.75,62.5
584,243.75,112.5,3.75,142.5,75,7.5,7.5,15,67.5
585,285,93.75,0,142.5,75,7.5,7.5,15,69.58333333333333
586,326.25,67.5,-3.75,150,82.5,18.75,15,26.25,75.83333333333333
587,345,7.5,-3.75,153.75,86.25,26.25,26.25,41.25,75.83333333333333
588,378.75,-33.75,-11.25,146.25,75,11.25,18.75,41.25,69.58333333333333
589,390,-22.5,0,157.5,78.75,11.25,26.25,45,76.25
590,337.5,-7.5,11.25,165,93.75,22.5,33.75,48.75,78.33333333333333
591,318.75,7.5,-3.75,150,82.5,15,26.25,33.75,70.0
592,352.5,48.75,0,153.75,78.75,15,26.25,37.5,79.16666666666667
593,360,71.25,11.25,153.75,78.75,15,30,41.25,84.58333333333333
594,318.75,71.25,11.25,153.75,78.75,18.75,33.75,48.75,81.66666666666667
595,255,41.25,15,165,86.25,26.25,41.25,60,76.66666666666667
596,240,11.25,22.5,168.75,93.75,30,41.25,60,74.16666666666667
597,273.75,15,15,153.75,82.5,22.5,33.75,56.25,72.5
598,326.25,63.75,-3.75,131.25,63.75,11.25,26.25,45,73.75
599,397.5,127.5,-11.25,131.25,56.25,0,11.25,30,82.5
600,472.5,120,-15,123.75,41.25,-18.75,0,22.5,82.91666666666667
601,476.25,67.5,-15,120,33.75,-26.25,0,26.25,75.83333333333333
602,420,60,7.5,146.25,60,0,22.5,48.75,85.0
603,352.5,48.75,18.75,153.75,63.75,3.75,30,56.25,80.83333333333333
604,318.75,22.5,7.5,142.5,52.5,-3.75,22.5,45,67.5
605,307.5,26.25,7.5,146.25,56.25,3.75,26.25,48.75,69.16666666666667
606,281.25,48.75,18.75,153.75,63.75,11.25,33.75,52.5,73.75
607,262.5,71.25,26.25,157.5,67.5,15,37.5,52.5,76.66666666666667
608,292.5,108.75,33.75,161.25,71.25,18.75,37.5,56.25,86.66666666666667
609,322.5,97.5,37.5,165,75,18.75,33.75,52.5,89.16666666666667
610,322.5,60,33.75,157.5,67.5,11.25,30,52.5,81.66666666666667
611,356.25,52.5,22.5,146.25,52.5,0,22.5,48.75,77.91666666666667
612,420,37.5,7.5,131.25,30,-22.5,3.75,30,70.83333333333333
613,412.5,18.75,15,127.5,26.25,-30,0,33.75,67.08333333333333
614,367.5,18.75,26.25,127.5,26.25,-33.75,-3.75,37.5,62.916666666666664
615,330,11.25,30,123.75,22.5,-37.5,-11.25,26.25,55.0
616,307.5,15,33.75,116.25,15,-41.25,-11.25,18.75,50.416666666666664
617,315,48.75,30,108.75,7.5,-52.5,-22.5,15,50.0
618,296.25,90,30,101.25,-3.75,-60,-30,3.75,47.5
619,266.25,135,7.5,71.25,-26.25,-75,-52.5,-18.75,34.166666666666664
620,247.5,146.25,0,56.25,-33.75,-86.25,-67.5,-37.5,25.0
621,243.75,90,15,71.25,-26.25,-86.25,-71.25,-37.5,22.083333333333332
622,243.75,-3.75,33.75,82.5,-18.75,-75,-56.25,-22.5,20.416666666666668
623,285,-56.25,41.25,86.25,-11.25,-67.5,-45,-7.5,25.0
624,356.25,-86.25,33.75,82.5,-11.25,-75,-48.75,-7.5,27.083333333333332
625,326.25,-123.75,45,78.75,-22.5,-82.5,-52.5,-15,17.083333333333332
626,251.25,-112.5,56.25,78.75,-22.5,-86.25,-56.25,-18.75,10.0
627,273.75,-45,63.75,82.5,-18.75,-82.5,-56.25,-18.75,22.083333333333332
628,326.25,11.25,67.5,82.5,-22.5,-82.5,-52.5,-15,35.0
629,303.75,-3.75,63.75,71.25,-26.25,-90,-60,-22.5,26.25
630,221.25,-37.5,48.75,52.5,-45,-108.75,-82.5,-45,0.4166666666666667
631,176.25,-3.75,48.75,37.5,-52.5,-116.25,-93.75,-56.25,-6.666666666666667
632,183.75,41.25,45,33.75,-60,-120,-101.25,-63.75,-4.583333333333333
633,210,37.5,37.5,26.25,-63.75,-127.5,-108.75,-75,-7.083333333333333
634,202.5,-7.5,33.75,11.25,-78.75,-138.75,-120,-86.25,-20.416666666666668
635,206.25,-41.25,26.25,-3.75,-90,-153.75,-131.25,-90,-30.833333333333332
636,273.75,-41.25,22.5,-7.5,-90,-157.5,-131.25,-86.25,-24.166666666666668
637,288.75,-48.75,18.75,-15,-101.25,-161.25,-127.5,-86.25,-25.833333333333332
638,225,-75,26.25,-18.75,-105,-165,-127.5,-90,-36.666666666666664
639,195,-90,26.25,-15,-93.75,-157.5,-123.75,-86.25,-38.333333333333336
640,198.75,-108.75,30,-30,-101.25,-161.25,-127.5,-93.75,-43.75
641,198.75,-135,37.5,-30,-101.25,-157.5,-127.5,-90,-45.0
642,168.75,-127.5,41.25,-18.75,-90,-146.25,-112.5,-78.75,-40.416666666666664
643,135,-82.5,41.25,-22.5,-93.75,-146.25,-112.5,-78.75,-40.0
644,135,-56.25,33.75,-41.25,-108.75,-153.75,-127.5,-93.75,-45.833333333333336
645,161.25,-52.5,30,-37.5,-97.5,-153.75,-131.25,-97.5,-42.083333333333336
646,172.5,-60,3.75,-52.5,-120,-172.5,-150,-112.5,-54.583333333333336
647,180,-82.5,-22.5,-90,-157.5,-202.5,-172.5,-127.5,-75.0
648,221.25,-116.25,-33.75,-105,-168.75,-217.5,-183.75,-138.75,-82.5
649,195,-138.75,-33.75,-108.75,-180,-228.75,-191.25,-146.25,-92.5
650,150,-123.75,-22.5,-123.75,-195,-232.5,-187.5,-142.5,-97.5
651,183.75,-86.25,-18.75,-108.75,-172.5,-217.5,-180,-138.75,-82.08333333333333
652,213.75,-67.5,-22.5,-93.75,-150,-210,-176.25,-142.5,-72.08333333333333
653,180,-90,-15,-97.5,-157.5,-210,-176.25,-138.75,-78.33333333333333
654,116.25,-108.75,0,-97.5,-161.25,-206.25,-168.75,-131.25,-84.16666666666667
655,78.75,-120,3.75,-93.75,-146.25,-183.75,-157.5,-123.75,-82.5
656,93.75,-108.75,3.75,-90,-138.75,-180,-153.75,-123.75,-77.5
657,127.5,-101.25,-11.25,-101.25,-153.75,-195,-172.5,-138.75,-82.91666666666667
658,146.25,-123.75,-15,-105,-157.5,-206.25,-183.75,-146.25,-87.91666666666667
659,161.25,-138.75,-26.25,-112.5,-161.25,-210,-183.75,-142.5,-90.41666666666667
660,217.5,-131.25,-33.75,-123.75,-180,-225,-191.25,-150,-90.83333333333333
661,213.75,-150,-33.75,-135,-191.25,-232.5,-198.75,-153.75,-97.91666666666667
662,161.25,-161.25,-26.25,-123.75,-180,-225,-191.25,-146.25,-99.16666666666667
663,142.5,-131.25,-18.75,-123.75,-180,-221.25,-183.75,-142.5,-95.41666666666667
664,150,-97.5,-18.75,-146.25,-202.5,-228.75,-187.5,-146.25,-97.5
665,157.5,-67.5,-18.75,-138.75,-187.5,-225,-187.5,-150,-90.83333333333333
666,138.75,-37.5,-11.25,-116.25,-157.5,-202.5,-168.75,-131.25,-76.25
667,108.75,-52.5,-3.75,-108.75,-157.5,-195,-161.25,-120,-76.66666666666667
668,101.25,-112.5,0,-101.25,-150,-195,-161.25,-127.5,-82.91666666666667
669,116.25,-146.25,-3.75,-97.5,-142.5,-195,-168.75,-135,-85.83333333333333
670,131.25,-135,-15,-105,-150,-198.75,-172.5,-135,-86.66666666666667
671,168.75,-116.25,-22.5,-116.25,-165,-210,-183.75,-146.25,-87.91666666666667
672,228.75,-142.5,-45,-138.75,-187.5,-236.25,-202.5,-161.25,-98.33333333333333
673,221.25,-168.75,-52.5,-146.25,-195,-247.5,-210,-168.75,-107.5
674,161.25,-150,-45,-146.25,-191.25,-240,-206.25,-165,-109.16666666666667
675,138.75,-123.75,-41.25,-153.75,-198.75,-240,-202.5,-165,-109.58333333333333
676,116.25,-135,-33.75,-153.75,-206.25,-240,-202.5,-157.5,-112.5
677,101.25,-150,-26.25,-135,-176.25,-221.25,-183.75,-142.5,-103.75
678,90,-142.5,-11.25,-112.5,-153.75,-198.75,-165,-127.5,-91.25
679,71.25,-131.25,0,-101.25,-138.75,-191.25,-153.75,-116.25,-84.58333333333333
680,101.25,-97.5,-7.5,-120,-157.5,-191.25,-157.5,-120,-83.33333333333333
681,157.5,-75,-18.75,-135,-168.75,-191.25,-161.25,-127.5,-80.0
682,168.75,-82.5,-18.75,-112.5,-157.5,-187.5,-161.25,-127.5,-75.41666666666667
683,161.25,-101.25,-33.75,-123.75,-172.5,-206.25,-180,-138.75,-88.33333333333333
684,195,-127.5,-56.25,-153.75,-187.5,-232.5,-202.5,-161.25,-102.91666666666667
685,206.25,-150,-52.5,-150,-187.5,-232.5,-202.5,-161.25,-103.33333333333333
686,187.5,-127.5,-37.5,-135,-183.75,-217.5,-183.75,-146.25,-93.75
687,168.75,-112.5,-37.5,-146.25,-191.25,-221.25,-187.5,-150,-97.5
688,157.5,-112.5,-37.5,-131.25,-176.25,-221.25,-187.5,-146.25,-95.0
689,142.5,-135,-26.25,-112.5,-157.5,-198.75,-165,-127.5,-86.66666666666667
690,105,-176.25,-3.75,-101.25,-138.75,-176.25,-138.75,-105,-81.66666666666667
691,82.5,-157.5,11.25,-82.5,-116.25,-161.25,-131.25,-93.75,-72.08333333333333
692,101.25,-105,3.75,-86.25,-112.5,-161.25,-138.75,-97.5,-66.25
693,123.75,-93.75,-7.5,-90,-127.5,-168.75,-142.5,-105,-67.91666666666667
694,135,-97.5,-15,-97.5,-138.75,-180,-150,-112.5,-72.91666666666667
695,157.5,-97.5,-30,-112.5,-150,-187.5,-161.25,-127.5,-78.75
696,210,-120,-48.75,-127.5,-165,-210,-183.75,-146.25,-87.91666666666667
697,225,-135,-52.5,-123.75,-161.25,-217.5,-187.5,-146.25,-88.75
698,195,-120,-37.5,-116.25,-153.75,-202.5,-165,-131.25,-81.25
699,168.75,-112.5,-41.25,-123.75,-165,-210,-172.5,-138.75,-88.33333333333333
700,180,-90,-41.25,-123.75,-172.5,-217.5,-183.75,-146.25,-88.33333333333333
701,202.5,-60,-30,-123.75,-165,-210,-176.25,-138.75,-77.91666666666667
702,157.5,-63.75,-18.75,-108.75,-153.75,-202.5,-165,-131.25,-76.25
703,75,-78.75,-11.25,-93.75,-142.5,-191.25,-161.25,-131.25,-81.66666666666667
704,48.75,-78.75,-18.75,-108.75,-153.75,-187.5,-161.25,-131.25,-87.91666666666667
705,116.25,-60,-18.75,-112.5,-161.25,-187.5,-157.5,-123.75,-78.33333333333333
706,157.5,-56.25,-18.75,-97.5,-138.75,-176.25,-150,-123.75,-67.08333333333333
707,165,-63.75,-26.25,-97.5,-135,-180,-153.75,-131.25,-69.16666666666667
708,206.25,-75,-48.75,-123.75,-161.25,-202.5,-176.25,-150,-81.25
709,183.75,-116.25,-56.25,-127.5,-168.75,-217.5,-180,-150,-92.5
710,138.75,-157.5,-41.25,-112.5,-157.5,-202.5,-168.75,-135,-92.91666666666667
711,138.75,-153.75,-26.25,-101.25,-146.25,-191.25,-157.5,-123.75,-84.58333333333333
712,168.75,-127.5,-15,-90,-135,-176.25,-142.5,-112.5,-70.0
713,180,-127.5,-3.75,-75,-120,-157.5,-123.75,-93.75,-57.916666666666664
714,150,-138.75,3.75,-67.5,-112.5,-150,-116.25,-90,-57.916666666666664
715,108.75,-127.5,15,-63.75,-108.75,-146.25,-116.25,-86.25,-58.333333333333336
716,108.75,-90,3.75,-75,-112.5,-153.75,-127.5,-93.75,-60.0
717,142.5,-67.5,-18.75,-93.75,-131.25,-172.5,-142.5,-112.5,-66.25
718,146.25,-75,-30,-97.5,-138.75,-176.25,-150,-116.25,-70.83333333333333
719,153.75,-97.5,-33.75,-105,-142.5,-187.5,-157.5,-123.75,-77.08333333333333
720,213.75,-116.25,-41.25,-112.5,-153.75,-198.75,-168.75,-131.25,-78.75
721,232.5,-120,-45,-116.25,-157.5,-210,-168.75,-131.25,-79.58333333333333
722,172.5,-116.25,-41.25,-116.25,-161.25,-213.75,-172.5,-135,-87.08333333333333
723,146.25,-82.5,-33.75,-116.25,-161.25,-206.25,-165,-127.5,-82.91666666666667
724,183.75,-48.75,-37.5,-120,-165,-210,-168.75,-131.25,-77.5
725,157.5,-82.5,-41.25,-120,-165,-210,-176.25,-138.75,-86.25
726,97.5,-101.25,-30,-120,-161.25,-206.25,-165,-131.25,-90.83333333333333
727,67.5,-82.5,-26.25,-127.5,-168.75,-202.5,-157.5,-127.5,-91.66666666666667
728,86.25,-75,-30,-120,-161.25,-195,-153.75,-127.5,-86.25
729,138.75,-90,-26.25,-112.5,-142.5,-180,-142.5,-116.25,-74.58333333333333
730,172.5,-86.25,-22.5,-112.5,-135,-172.5,-138.75,-108.75,-67.08333333333333
731,202.5,-48.75,-33.75,-116.25,-146.25,-183.75,-153.75,-116.25,-66.25
732,255,-52.5,-63.75,-131.25,-168.75,-213.75,-176.25,-131.25,-75.83333333333333
733,247.5,-101.25,-71.25,-131.25,-168.75,-213.75,-172.5,-135,-82.91666666666667
734,195,-127.5,-52.5,-123.75,-165,-210,-168.75,-131.25,-87.08333333333333
735,172.5,-123.75,-30,-112.5,-157.5,-206.25,-165,-123.75,-82.91666666666667
736,165,-146.25,-33.75,-112.5,-161.25,-206.25,-168.75,-131.25,-88.33333333333333
737,153.75,-165,-41.25,-131.25,-180,-217.5,-176.25,-142.5,-100.0
738,120,-161.25,-30,-131.25,-176.25,-206.25,-161.25,-131.25,-97.5
739,90,-150,-22.5,-112.5,-153.75,-187.5,-146.25,-112.5,-88.33333333333333
740,93.75,-112.5,-18.75,-108.75,-142.5,-180,-146.25,-112.5,-80.83333333333333
741,120,-86.25,-26.25,-120,-153.75,-187.5,-157.5,-127.5,-82.08333333333333
742,142.5,-97.5,-22.5,-112.5,-146.25,-191.25,-161.25,-131.25,-80.0
743,153.75,-108.75,-18.75,-108.75,-138.75,-191.25,-165,-127.5,-78.33333333333333
744,202.5,-116.25,-41.25,-127.5,-161.25,-210,-180,-138.75,-85.83333333333333
745,228.75,-135,-48.75,-135,-172.5,-217.5,-180,-135,-88.33333333333333
746,191.25,-138.75,-33.75,-123.75,-157.5,-206.25,-165,-127.5,-84.58333333333333
747,153.75,-146.25,-30,-135,-168.75,-206.25,-168.75,-135,-92.91666666666667
748,168.75,-131.25,-33.75,-150,-183.75,-213.75,-172.5,-138.75,-95.0
749,172.5,-112.5,-33.75,-146.25,-172.5,-210,-168.75,-135,-89.58333333333333
750,112.5,-127.5,-30,-131.25,-157.5,-206.25,-168.75,-135,-93.75
751,78.75,-116.25,-22.5,-123.75,-153.75,-198.75,-161.25,-127.5,-91.66666666666667
752,101.25,-71.25,-18.75,-123.75,-153.75,-191.25,-157.5,-120,-81.66666666666667
753,127.5,-48.75,-45,-146.25,-176.25,-213.75,-180,-146.25,-92.08333333333333
754,127.5,-71.25,-67.5,-168.75,-195,-236.25,-202.5,-168.75,-109.16666666666667
755,165,-82.5,-71.25,-172.5,-198.75,-240,-202.5,-165,-107.5
756,232.5,-112.5,-75,-183.75,-206.25,-247.5,-206.25,-161.25,-106.66666666666667
757,236.25,-142.5,-78.75,-183.75,-210,-251.25,-210,-161.25,-111.25
758,180,-127.5,-71.25,-165,-198.75,-243.75,-198.75,-157.5,-109.16666666666667
759,161.25,-112.5,-60,-165,-202.5,-243.75,-198.75,-161.25,-109.16666666666667
760,165,-112.5,-60,-168.75,-202.5,-240,-195,-153.75,-107.5
761,123.75,-138.75,-52.5,-172.5,-202.5,-236.25,-191.25,-146.25,-112.91666666666667
762,108.75,-161.25,-45,-161.25,-191.25,-225,-180,-146.25,-111.25
763,108.75,-131.25,-37.5,-142.5,-176.25,-213.75,-172.5,-142.5,-100.83333333333333
764,108.75,-86.25,-37.5,-146.25,-180,-213.75,-176.25,-142.5,-97.08333333333333
765,135,-67.5,-48.75,-157.5,-183.75,-217.5,-183.75,-142.5,-96.25
766,176.25,-41.25,-63.75,-168.75,-191.25,-225,-191.25,-150,-95.0
767,210,-33.75,-82.5,-187.5,-213.75,-240,-202.5,-157.5,-100.83333333333333
768,236.25,-75,-97.5,-198.75,-221.25,-255,-213.75,-168.75,-110.41666666666667
769,195,-146.25,-82.5,-180,-206.25,-247.5,-206.25,-165,-115.41666666666667
770,138.75,-191.25,-56.25,-165,-198.75,-236.25,-195,-161.25,-118.33333333333333
771,153.75,-180,-52.5,-157.5,-191.25,-232.5,-191.25,-157.5,-112.08333333333333
772,153.75,-187.5,-52.5,-161.25,-195,-232.5,-187.5,-157.5,-113.33333333333333
773,150,-176.25,-37.5,-146.25,-176.25,-221.25,-176.25,-138.75,-102.5
774,146.25,-146.25,-37.5,-138.75,-172.5,-213.75,-172.5,-135,-96.66666666666667
775,86.25,-146.25,-30,-142.5,-176.25,-210,-168.75,-131.25,-102.08333333333333
776,60,-138.75,-41.25,-153.75,-183.75,-213.75,-172.5,-138.75,-109.16666666666667
777,82.5,-135,-60,-161.25,-187.5,-221.25,-183.75,-153.75,-113.33333333333333
778,108.75,-127.5,-63.75,-161.25,-187.5,-225,-191.25,-157.5,-111.66666666666667
779,172.5,-108.75,-60,-161.25,-187.5,-225,-187.5,-150,-100.83333333333333
780,266.25,-105,-82.5,-183.75,-210,-251.25,-210,-168.75,-105.0
781,262.5,-105,-93.75,-195,-221.25,-262.5,-217.5,-176.25,-112.08333333333333
782,183.75,-120,-78.75,-183.75,-213.75,-251.25,-206.25,-165,-115.0
783,153.75,-123.75,-67.5,-183.75,-213.75,-255,-210,-168.75,-118.75
784,146.25,-123.75,-75,-206.25,-236.25,-266.25,-217.5,-180,-128.75
785,131.25,-138.75,-82.5,-206.25,-247.5,-270,-221.25,-180,-135.0
786,105,-127.5,-78.75,-180,-213.75,-255,-210,-168.75,-125.41666666666667
787,67.5,-93.75,-56.25,-161.25,-191.25,-232.5,-195,-157.5,-113.33333333333333
788,90,-60,-41.25,-153.75,-187.5,-225,-187.5,-150,-101.66666666666667
789,142.5,-63.75,-48.75,-157.5,-191.25,-228.75,-191.25,-150,-98.75
790,146.25,-101.25,-56.25,-157.5,-191.25,-232.5,-195,-153.75,-104.58333333333333
791,150,-120,-60,-161.25,-195,-240,-206.25,-165,-110.83333333333333
792,187.5,-138.75,-82.5,-183.75,-217.5,-262.5,-225,-183.75,-122.91666666666667
793,198.75,-153.75,-86.25,-187.5,-221.25,-262.5,-221.25,-180,-123.75
794,153.75,-165,-60,-165,-198.75,-243.75,-198.75,-161.25,-115.41666666666667
795,135,-187.5,-52.5,-161.25,-191.25,-236.25,-191.25,-157.5,-115.83333333333333
796,157.5,-176.25,-63.75,-168.75,-202.5,-243.75,-198.75,-165,-117.91666666666667
797,165,-153.75,-67.5,-168.75,-206.25,-247.5,-206.25,-168.75,-117.08333333333333
798,127.5,-153.75,-48.75,-157.5,-195,-236.25,-195,-157.5,-112.91666666666667
799,105,-123.75,-37.5,-153.75,-183.75,-225,-183.75,-150,-105.83333333333333
800,101.25,-90,-48.75,-153.75,-183.75,-225,-187.5,-153.75,-104.58333333333333
801,116.25,-78.75,-75,-180,-206.25,-232.5,-198.75,-165,-113.33333333333333
802,131.25,-56.25,-82.5,-195,-221.25,-240,-202.5,-165,-114.58333333333333
803,157.5,-67.5,-86.25,-198.75,-225,-255,-213.75,-176.25,-118.33333333333333
804,206.25,-127.5,-97.5,-206.25,-228.75,-270,-225,-183.75,-125.83333333333333
805,187.5,-176.25,-97.5,-202.5,-228.75,-266.25,-221.25,-176.25,-131.25
806,142.5,-165,-82.5,-187.5,-217.5,-258.75,-213.75,-172.5,-128.33333333333334
807,142.5,-157.5,-71.25,-176.25,-210,-251.25,-206.25,-168.75,-122.08333333333333
808,161.25,-153.75,-63.75,-172.5,-206.25,-247.5,-198.75,-165,-116.25
809,176.25,-127.5,-56.25,-168.75,-198.75,-243.75,-195,-157.5,-107.91666666666667
810,135,-138.75,-41.25,-150,-183.75,-225,-180,-146.25,-103.33333333333333
811,67.5,-150,-37.5,-153.75,-180,-221.25,-180,-150,-111.66666666666667
812,63.75,-123.75,-41.25,-157.5,-183.75,-225,-191.25,-157.5,-112.91666666666667
813,142.5,-90,-52.5,-161.25,-183.75,-225,-191.25,-157.5,-102.08333333333333
814,168.75,-93.75,-67.5,-172.5,-198.75,-236.25,-202.5,-157.5,-106.66666666666667
815,161.25,-127.5,-82.5,-187.5,-217.5,-258.75,-225,-176.25,-123.75
816,221.25,-146.25,-86.25,-191.25,-225,-273.75,-240,-191.25,-125.83333333333333
817,247.5,-142.5,-67.5,-176.25,-210,-258.75,-221.25,-172.5,-111.25
818,187.5,-157.5,-48.75,-157.5,-191.25,-240,-195,-150,-105.83333333333333
819,131.25,-172.5,-56.25,-165,-195,-240,-198.75,-153.75,-116.66666666666667
820,131.25,-138.75,-56.25,-165,-195,-236.25,-195,-153.75,-112.08333333333333
821,135,-123.75,-48.75,-165,-198.75,-232.5,-191.25,-153.75,-108.75
822,116.25,-123.75,-33.75,-157.5,-187.5,-225,-183.75,-150,-105.0
823,93.75,-90,-22.5,-138.75,-172.5,-213.75,-176.25,-142.5,-95.83333333333333
824,90,-60,-15,-131.25,-161.25,-202.5,-168.75,-135,-87.08333333333333
825,93.75,-60,-30,-146.25,-176.25,-213.75,-180,-142.5,-95.0
826,105,-67.5,-37.5,-165,-195,-225,-191.25,-153.75,-103.33333333333333
827,135,-67.5,-33.75,-165,-195,-228.75,-195,-157.5,-100.83333333333333
828,195,-90,-30,-157.5,-191.25,-236.25,-195,-161.25,-96.25
829,195,-142.5,-26.25,-153.75,-195,-240,-198.75,-161.25,-102.5
830,172.5,-123.75,-11.25,-131.25,-176.25,-225,-183.75,-146.25,-91.66666666666667
831,176.25,-78.75,0,-123.75,-168.75,-213.75,-172.5,-135,-79.58333333333333
832,176.25,-67.5,0,-138.75,-180,-217.5,-172.5,-135,-81.66666666666667
833,180,-60,7.5,-123.75,-161.25,-206.25,-165,-135,-73.75
834,153.75,-56.25,18.75,-101.25,-142.5,-198.75,-161.25,-135,-69.16666666666667
835,82.5,-67.5,22.5,-108.75,-146.25,-198.75,-161.25,-135,-79.16666666666667
836,52.5,-78.75,22.5,-120,-161.25,-195,-165,-138.75,-87.08333333333333
837,90,-63.75,22.5,-108.75,-153.75,-195,-168.75,-138.75,-79.58333333333333
838,135,-22.5,26.25,-97.5,-138.75,-187.5,-165,-131.25,-64.58333333333333
839,191.25,7.5,26.25,-97.5,-142.5,-187.5,-157.5,-123.75,-53.75
840,247.5,0,-7.5,-123.75,-161.25,-210,-176.25,-135,-62.916666666666664
841,221.25,-33.75,-37.5,-142.5,-180,-228.75,-195,-150,-82.91666666666667
842,161.25,-48.75,-48.75,-150,-183.75,-228.75,-191.25,-153.75,-93.75
843,176.25,-15,-56.25,-146.25,-176.25,-217.5,-180,-142.5,-84.16666666666667
844,183.75,-7.5,-75,-146.25,-176.25,-213.75,-172.5,-135,-82.5
845,172.5,-48.75,-67.5,-131.25,-161.25,-202.5,-157.5,-120,-79.58333333333333
846,157.5,-93.75,-37.5,-105,-135,-176.25,-135,-101.25,-69.58333333333333
847,153.75,-75,-26.25,-97.5,-127.5,-161.25,-127.5,-93.75,-61.666666666666664
848,172.5,-26.25,-30,-105,-127.5,-161.25,-127.5,-90,-55.0
849,187.5,-22.5,-63.75,-127.5,-150,-180,-146.25,-108.75,-67.91666666666667
850,198.75,-30,-93.75,-157.5,-176.25,-206.25,-172.5,-135,-85.83333333333333
851,228.75,-45,-108.75,-172.5,-187.5,-217.5,-180,-138.75,-91.25
852,281.25,-97.5,-112.5,-176.25,-195,-225,-183.75,-138.75,-94.16666666666667
853,288.75,-120,-97.5,-176.25,-195,-228.75,-180,-135,-93.75
854,236.25,-78.75,-93.75,-176.25,-198.75,-232.5,-183.75,-138.75,-96.25
855,210,-37.5,-90,-183.75,-206.25,-240,-191.25,-146.25,-98.33333333333333
856,210,-48.75,-78.75,-176.25,-202.5,-232.5,-183.75,-138.75,-94.58333333333333
857,198.75,-71.25,-67.5,-153.75,-183.75,-221.25,-176.25,-131.25,-89.58333333333333
858,165,-86.25,-60,-146.25,-176.25,-221.25,-176.25,-135,-92.91666666666667
859,120,-108.75,-48.75,-138.75,-172.5,-210,-168.75,-123.75,-94.58333333333333
860,116.25,-112.5,-48.75,-146.25,-176.25,-210,-168.75,-127.5,-97.08333333333333
861,123.75,-123.75,-71.25,-161.25,-187.5,-221.25,-183.75,-150,-108.33333333333333
862,138.75,-108.75,-75,-168.75,-187.5,-221.25,-191.25,-153.75,-107.5
863,183.75,-67.5,-90,-180,-195,-228.75,-195,-157.5,-103.33333333333333
864,236.25,-67.5,-108.75,-202.5,-221.25,-258.75,-217.5,-176.25,-112.91666666666667
865,247.5,-101.25,-112.5,-210,-236.25,-273.75,-228.75,-191.25,-122.91666666666667
866,195,-146.25,-101.25,-202.5,-228.75,-262.5,-217.5,-183.75,-127.5
867,161.25,-142.5,-86.25,-195,-225,-255,-210,-172.5,-125.0
868,153.75,-120,-86.25,-191.25,-221.25,-255,-210,-172.5,-122.5
869,138.75,-150,-86.25,-206.25,-228.75,-266.25,-221.25,-183.75,-133.75
870,97.5,-183.75,-78.75,-210,-240,-262.5,-217.5,-180,-141.66666666666666
871,71.25,-157.5,-78.75,-206.25,-225,-247.5,-202.5,-165,-134.58333333333334
872,67.5,-127.5,-78.75,-213.75,-225,-243.75,-198.75,-161.25,-131.25
873,93.75,-138.75,-75,-187.5,-210,-236.25,-202.5,-168.75,-125.0
874,127.5,-138.75,-71.25,-176.25,-198.75,-240,-210,-172.5,-120.0
875,150,-131.25,-86.25,-206.25,-225,-262.5,-228.75,-187.5,-130.83333333333334
876,202.5,-131.25,-120,-228.75,-251.25,-288.75,-247.5,-206.25,-141.25
877,240,-123.75,-123.75,-236.25,-262.5,-292.5,-247.5,-206.25,-139.16666666666666
878,195,-131.25,-105,-221.25,-251.25,-288.75,-240,-202.5,-138.33333333333334
879,142.5,-142.5,-105,-217.5,-251.25,-292.5,-247.5,-206.25,-146.66666666666666
880,142.5,-123.75,-108.75,-217.5,-247.5,-285,-240,-206.25,-142.91666666666666
881,138.75,-116.25,-97.5,-213.75,-240,-281.25,-236.25,-202.5,-138.75
882,90,-153.75,-78.75,-195,-225,-266.25,-221.25,-180,-136.66666666666666
883,60,-157.5,-71.25,-187.5,-213.75,-255,-210,-180,-135.0
884,90,-112.5,-82.5,-195,-217.5,-255,-217.5,-187.5,-130.83333333333334
885,135,-108.75,-86.25,-195,-213.75,-243.75,-210,-176.25,-122.08333333333333
886,157.5,-153.75,-78.75,-191.25,-206.25,-240,-202.5,-168.75,-120.41666666666667
887,165,-183.75,-90,-195,-217.5,-258.75,-221.25,-187.5,-132.08333333333334
888,202.5,-183.75,-112.5,-213.75,-240,-285,-243.75,-206.25,-142.5
889,213.75,-172.5,-112.5,-213.75,-243.75,-288.75,-243.75,-202.5,-140.41666666666666
890,161.25,-161.25,-93.75,-198.75,-228.75,-273.75,-225,-187.5,-134.16666666666666
891,131.25,-153.75,-86.25,-191.25,-225,-270,-225,-195,-135.0
892,138.75,-153.75,-78.75,-187.5,-236.25,-285,-240,-210,-139.16666666666666
893,138.75,-168.75,-45,-150,-225,-296.25,-258.75,-228.75,-137.08333333333334
894,138.75,-202.5,37.5,-71.25,-191.25,-288.75,-266.25,-247.5,-121.25
895,135,-251.25,142.5,18.75,-161.25,-288.75,-281.25,-266.25,-105.83333333333333
896,131.25,-285,225,90,-150,-307.5,-307.5,-288.75,-99.16666666666667
897,161.25,-273.75,273.75,142.5,-135,-318.75,-326.25,-303.75,-86.66666666666667
898,172.5,-255,315,206.25,-105,-315,-330,-307.5,-68.75
899,202.5,-217.5,348.75,273.75,-67.5,-288.75,-315,-292.5,-39.583333333333336
900,303.75,-161.25,378.75,341.25,-15,-247.5,-273.75,-255,7.916666666666667
901,360,-112.5,412.5,423.75,67.5,-180,-206.25,-198.75,62.916666666666664
902,330,-48.75,446.25,506.25,153.75,-97.5,-123.75,-123.75,115.83333333333333
903,326.25,22.5,465,570,228.75,-15,-41.25,-52.5,167.08333333333334
904,412.5,127.5,472.5,641.25,318.75,90,56.25,37.5,239.58333333333334
905,502.5,255,438.75,682.5,416.25,217.5,183.75,153.75,316.6666666666667
906,513.75,371.25,378.75,671.25,517.5,356.25,333.75,288.75,381.25
907,525,513.75,285,618.75,603.75,502.5,487.5,431.25,440.8333333333333
908,577.5,678.75,183.75,562.5,701.25,660,648.75,585,510.8333333333333
909,637.5,881.25,120,547.5,821.25,836.25,828.75,746.25,602.0833333333334
910,663.75,1080,33.75,483.75,915,1005,1012.5,922.5,679.5833333333334
911,690,1267.5,-146.25,300,948.75,1155,1207.5,1117.5,726.6666666666666
912,742.5,1395,-393.75,22.5,918.75,1271.25,1376.25,1297.5,736.6666666666666
913,757.5,1466.25,-630,-262.5,900,1387.5,1530,1451.25,733.3333333333334
914,716.25,1552.5,-813.75,-491.25,915,1518.75,1683.75,1582.5,740.4166666666666
915,656.25,1597.5,-915,-618.75,948.75,1635,1796.25,1657.5,750.8333333333334
916,607.5,1567.5,-922.5,-641.25,1023.75,1732.5,1860,1672.5,766.6666666666666
917,547.5,1492.5,-956.25,-716.25,1042.5,1762.5,1856.25,1627.5,739.5833333333334
918,461.25,1398.75,-1042.5,-851.25,963.75,1687.5,1770,1533.75,657.9166666666666
919,337.5,1241.25,-1076.25,-922.5,832.5,1496.25,1567.5,1353.75,536.6666666666666
920,210,1020,-1023.75,-945,630,1192.5,1252.5,1072.5,378.75
921,161.25,802.5,-978.75,-1005,345,813.75,896.25,780,201.66666666666666
922,127.5,588.75,-975,-1121.25,3.75,412.5,543.75,517.5,10.833333333333334
923,78.75,405,-948.75,-1222.5,-315,41.25,228.75,281.25,-161.25
924,93.75,288.75,-907.5,-1241.25,-498.75,-198.75,0,101.25,-262.5
925,90,157.5,-847.5,-1170,-536.25,-300,-123.75,-30,-306.6666666666667
926,22.5,22.5,-772.5,-1031.25,-472.5,-292.5,-161.25,-90,-308.3333333333333
927,7.5,-22.5,-701.25,-870,-367.5,-240,-142.5,-93.75,-270.0
928,45,-26.25,-645,-757.5,-303.75,-198.75,-112.5,-78.75,-230.83333333333334
929,37.5,-63.75,-592.5,-686.25,-292.5,-191.25,-108.75,-75,-219.16666666666666
930,26.25,-60,-532.5,-611.25,-285,-191.25,-112.5,-86.25,-205.83333333333334
931,33.75,-26.25,-457.5,-506.25,-236.25,-161.25,-90,-71.25,-168.33333333333334
932,75,18.75,-386.25,-393.75,-168.75,-123.75,-63.75,-48.75,-121.25
933,101.25,52.5,-330,-318.75,-127.5,-101.25,-52.5,-41.25,-90.83333333333333
934,116.25,48.75,-281.25,-262.5,-93.75,-82.5,-41.25,-33.75,-70.0
935,168.75,33.75,-251.25,-217.5,-78.75,-90,-56.25,-48.75,-60.0
936,240,26.25,-210,-176.25,-75,-105,-71.25,-67.5,-48.75
937,270,11.25,-172.5,-150,-63.75,-105,-75,-75,-40.0
938,232.5,-7.5,-127.5,-116.25,-48.75,-97.5,-67.5,-71.25,-33.75
939,198.75,-15,-93.75,-93.75,-41.25,-93.75,-63.75,-67.5,-30.0
940,202.5,-22.5,-82.5,-82.5,-45,-93.75,-67.5,-78.75,-30.0
941,202.5,-33.75,-71.25,-75,-48.75,-101.25,-71.25,-82.5,-31.25
942,176.25,-33.75,-56.25,-63.75,-45,-97.5,-67.5,-78.75,-29.583333333333332
943,138.75,-30,-45,-52.5,-41.25,-93.75,-63.75,-75,-29.166666666666668
944,105,-37.5,-45,-52.5,-45,-101.25,-75,-82.5,-37.083333333333336
945,108.75,-41.25,-56.25,-60,-60,-120,-93.75,-101.25,-47.083333333333336
946,131.25,-56.25,-63.75,-67.5,-75,-135,-112.5,-116.25,-55.0
947,161.25,-75,-60,-71.25,-82.5,-146.25,-123.75,-123.75,-57.916666666666664
948,210,-82.5,-71.25,-71.25,-90,-165,-142.5,-138.75,-61.25
949,217.5,-105,-78.75,-78.75,-101.25,-183.75,-157.5,-153.75,-71.25
950,180,-116.25,-60,-63.75,-93.75,-176.25,-146.25,-138.75,-68.33333333333333
951,180,-105,-45,-48.75,-78.75,-161.25,-131.25,-123.75,-57.083333333333336
952,191.25,-112.5,-33.75,-30,-67.5,-146.25,-116.25,-112.5,-47.5
953,187.5,-120,-22.5,-18.75,-60,-142.5,-112.5,-108.75,-44.166666666666664
954,180,-101.25,-15,-18.75,-60,-138.75,-108.75,-108.75,-41.25
955,172.5,-60,-11.25,-11.25,-52.5,-131.25,-101.25,-101.25,-32.916666666666664
956,161.25,-41.25,-11.25,-3.75,-45,-123.75,-101.25,-101.25,-29.583333333333332
957,180,-41.25,-30,-26.25,-63.75,-142.5,-123.75,-120,-40.833333333333336
958,198.75,-45,-37.5,-33.75,-71.25,-150,-131.25,-127.5,-44.166666666666664
959,213.75,-41.25,-41.25,-15,-60,-142.5,-120,-116.25,-35.833333333333336
960,262.5,-56.25,-45,-26.25,-67.5,-153.75,-131.25,-120,-37.5
961,273.75,-97.5,-48.75,-41.25,-86.25,-168.75,-138.75,-127.5,-48.333333333333336
962,217.5,-105,-48.75,-37.5,-90,-168.75,-131.25,-120,-53.75
963,195,-78.75,-33.75,-26.25,-78.75,-157.5,-123.75,-116.25,-46.666666666666664
964,213.75,-52.5,-30,-18.75,-67.5,-150,-120,-112.5,-37.5
965,236.25,-48.75,-30,-11.25,-63.75,-142.5,-112.5,-105,-30.833333333333332
966,198.75,-86.25,-22.5,-3.75,-56.25,-131.25,-105,-101.25,-34.166666666666664
967,131.25,-101.25,0,15,-37.5,-116.25,-93.75,-93.75,-32.916666666666664
968,138.75,-56.25,0,15,-41.25,-116.25,-97.5,-101.25,-28.75
969,180,-22.5,-18.75,-3.75,-60,-131.25,-116.25,-112.5,-31.666666666666668
970,172.5,-22.5,-30,-7.5,-60,-138.75,-123.75,-116.25,-36.25
971,210,-22.5,-33.75,-3.75,-56.25,-131.25,-116.25,-116.25,-30.0
972,288.75,-45,-33.75,3.75,-48.75,-127.5,-105,-105,-19.166666666666668
973,296.25,-75,-22.5,11.25,-41.25,-120,-93.75,-90,-15.0
974,258.75,-75,-3.75,33.75,-22.5,-101.25,-75,-75,-6.666666666666667
975,236.25,-82.5,3.75,45,-11.25,-93.75,-63.75,-67.5,-3.75
976,213.75,-108.75,-15,22.5,-33.75,-112.5,-82.5,-82.5,-22.083333333333332
977,206.25,-105,-22.5,22.5,-33.75,-116.25,-90,-90,-25.416666666666668
978,187.5,-67.5,-15,37.5,-22.5,-105,-82.5,-82.5,-16.666666666666668
979,161.25,-33.75,-18.75,26.25,-33.75,-112.5,-93.75,-101.25,-22.916666666666668
980,146.25,-18.75,-11.25,30,-30,-105,-90,-97.5,-19.583333333333332
981,165,-22.5,-11.25,37.5,-22.5,-101.25,-86.25,-86.25,-14.166666666666666
982,172.5,-37.5,-37.5,26.25,-30,-116.25,-105,-101.25,-25.416666666666668
983,221.25,-18.75,-52.5,11.25,-45,-127.5,-116.25,-116.25,-27.083333333333332
984,337.5,11.25,-56.25,11.25,-45,-127.5,-108.75,-108.75,-9.583333333333334
985,367.5,-11.25,-48.75,30,-30,-116.25,-90,-90,1.25
986,288.75,-48.75,-30,48.75,-11.25,-97.5,-71.25,-75,0.4166666666666667
987,240,-45,-15,60,0,-82.5,-56.25,-67.5,3.75
988,270,-22.5,-15,60,-3.75,-86.25,-60,-71.25,7.916666666666667
989,262.5,-37.5,-22.5,48.75,-11.25,-93.75,-67.5,-78.75,0.0
990,213.75,-52.5,-18.75,63.75,0,-86.25,-63.75,-78.75,-2.5
991,183.75,-30,3.75,93.75,33.75,-60,-45,-60,13.333333333333334
992,183.75,-11.25,15,105,48.75,-37.5,-30,-45,25.416666666666668
993,206.25,-15,0,97.5,41.25,-45,-33.75,-48.75,22.5
994,243.75,-3.75,-15,90,33.75,-52.5,-41.25,-56.25,22.083333333333332
995,300,22.5,-22.5,90,33.75,-52.5,-37.5,-56.25,30.833333333333332
996,356.25,15,-41.25,67.5,7.5,-75,-60,-71.25,22.083333333333332
997,356.25,3.75,-52.5,60,3.75,-90,-71.25,-86.25,13.75
998,303.75,3.75,-37.5,78.75,26.25,-67.5,-52.5,-71.25,20.416666666666668
999,285,-15,-18.75,101.25,45,-45,-26.25,-52.5,30.416666666666668
1000,307.5,-30,-3.75,116.25,56.25,-26.25,-3.75,-30,42.916666666666664
1001,300,-45,0,123.75,63.75,-22.5,0,-18.75,44.583333333333336
1002,240,-52.5,3.75,127.5,67.5,-18.75,3.75,-18.75,39.166666666666664
1003,191.25,-45,7.5,127.5,67.5,-15,3.75,-18.75,35.416666666666664
1004,198.75,-37.5,3.75,135,75,-7.5,7.5,-15,40.0
1005,270,15,0,142.5,90,3.75,11.25,-15,57.5
1006,333.75,75,3.75,150,97.5,7.5,11.25,-7.5,74.58333333333333
1007,345,56.25,-7.5,135,82.5,-11.25,-3.75,-22.5,63.75
1008,363.75,0,-41.25,105,48.75,-48.75,-37.5,-60,36.666666666666664
1009,367.5,-26.25,-48.75,105,41.25,-52.5,-45,-63.75,30.833333333333332
1010,326.25,-33.75,-33.75,120,52.5,-41.25,-26.25,-45,35.416666666666664
1011,322.5,-22.5,-18.75,135,71.25,-22.5,-7.5,-26.25,47.916666666666664
1012,330,-15,-15,142.5,75,-18.75,-3.75,-22.5,52.5
1013,318.75,0,-3.75,153.75,86.25,-7.5,7.5,-15,60.0
1014,288.75,30,3.75,165,97.5,11.25,26.25,3.75,69.58333333333333
1015,255,56.25,3.75,168.75,108.75,22.5,33.75,11.25,73.33333333333333
1016,277.5,93.75,11.25,180,116.25,30,41.25,18.75,85.41666666666667
1017,341.25,112.5,11.25,180,120,33.75,45,22.5,96.25
1018,337.5,71.25,-3.75,165,101.25,18.75,26.25,3.75,80.0
1019,311.25,41.25,-22.5,150,86.25,3.75,15,-11.25,63.75
1020,367.5,37.5,-52.5,120,56.25,-18.75,-3.75,-22.5,53.75
1021,405,33.75,-60,120,56.25,-22.5,-7.5,-26.25,55.416666666666664
1022,360,30,-41.25,135,71.25,-11.25,11.25,-15,60.0
1023,345,30,-26.25,146.25,75,0,22.5,-3.75,65.41666666666667
1024,363.75,7.5,-15,161.25,93.75,11.25,33.75,7.5,73.75
1025,356.25,-11.25,-7.5,172.5,101.25,18.75,41.25,15,76.25
1026,337.5,33.75,-7.5,168.75,90,7.5,30,7.5,74.16666666666667
1027,311.25,93.75,-3.75,168.75,93.75,11.25,30,3.75,78.75
1028,303.75,120,3.75,172.5,101.25,22.5,37.5,11.25,85.83333333333333
1029,333.75,127.5,-3.75,165,97.5,18.75,37.5,11.25,87.5
1030,348.75,108.75,-3.75,165,93.75,18.75,33.75,11.25,86.25
1031,352.5,60,-11.25,153.75,86.25,3.75,22.5,3.75,74.58333333333333
1032,412.5,37.5,-26.25,142.5,71.25,-11.25,7.5,-7.5,69.58333333333333
1033,435,7.5,-22.5,138.75,60,-22.5,3.75,-11.25,65.41666666666667
1034,390,-7.5,-15,138.75,56.25,-18.75,7.5,-3.75,60.833333333333336
1035,367.5,11.25,-15,138.75,56.25,-18.75,11.25,-3.75,60.833333333333336
1036,363.75,11.25,-15,138.75,56.25,-22.5,3.75,-15,57.916666666666664
1037,352.5,11.25,-3.75,142.5,56.25,-22.5,3.75,-11.25,58.75
1038,330,37.5,3.75,146.25,63.75,-15,15,-3.75,64.16666666666667
1039,311.25,71.25,11.25,146.25,63.75,-7.5,18.75,0,68.33333333333333
1040,300,90,18.75,150,71.25,0,26.25,7.5,73.75
1041,330,101.25,3.75,131.25,52.5,-15,11.25,-3.75,67.91666666666667
1042,356.25,86.25,-11.25,116.25,30,-37.5,-7.5,-22.5,56.666666666666664
1043,348.75,52.5,-7.5,123.75,37.5,-37.5,-7.5,-18.75,54.583333333333336
1044,386.25,33.75,-11.25,116.25,33.75,-41.25,-11.25,-15,54.583333333333336
1045,416.25,15,-7.5,108.75,22.5,-48.75,-11.25,-11.25,53.75
1046,371.25,-11.25,11.25,127.5,37.5,-37.5,3.75,0,55.833333333333336
1047,330,-22.5,30,135,48.75,-30,15,3.75,56.666666666666664
1048,341.25,0,30,123.75,33.75,-41.25,-3.75,-22.5,51.25
1049,341.25,11.25,33.75,116.25,30,-48.75,-11.25,-33.75,48.75
1050,288.75,-11.25,37.5,116.25,30,-48.75,-15,-37.5,40.0
1051,240,0,33.75,112.5,22.5,-56.25,-26.25,-48.75,30.833333333333332
1052,225,22.5,30,101.25,15,-60,-30,-52.5,27.916666666666668
1053,243.75,26.25,30,97.5,11.25,-60,-33.75,-52.5,29.166666666666668
1054,270,22.5,30,93.75,15,-63.75,-41.25,-56.25,30.0
1055,292.5,3.75,30,86.25,3.75,-71.25,-48.75,-63.75,25.833333333333332
1056,337.5,-22.5,18.75,71.25,-15,-93.75,-67.5,-78.75,16.666666666666668
1057,371.25,-18.75,15,67.5,-18.75,-105,-75,-86.25,16.666666666666668
1058,330,-15,22.5,63.75,-26.25,-112.5,-78.75,-90,10.416666666666666
1059,277.5,-48.75,22.5,52.5,-37.5,-120,-86.25,-101.25,-4.583333333333333
1060,273.75,-63.75,22.5,48.75,-37.5,-120,-90,-105,-7.916666666666667
1061,292.5,-33.75,22.5,48.75,-30,-116.25,-86.25,-105,-0.8333333333333334
1062,262.5,-30,45,60,-18.75,-105,-78.75,-97.5,4.166666666666667
1063,180,-41.25,52.5,60,-15,-101.25,-75,-93.75,-3.75
1064,142.5,-18.75,48.75,48.75,-22.5,-105,-82.5,-105,-10.416666666666666
1065,165,-26.25,30,33.75,-33.75,-120,-101.25,-120,-19.166666666666668
1066,213.75,-26.25,22.5,30,-37.5,-120,-101.25,-120,-15.416666666666666
1067,247.5,0,18.75,30,-37.5,-123.75,-105,-123.75,-10.416666666666666
1068,266.25,-11.25,3.75,7.5,-56.25,-142.5,-123.75,-138.75,-21.666666666666668
1069,247.5,-71.25,-3.75,-11.25,-71.25,-157.5,-131.25,-146.25,-38.333333333333336
1070,206.25,-123.75,18.75,3.75,-60,-142.5,-116.25,-135,-38.75
1071,195,-142.5,37.5,18.75,-41.25,-127.5,-105,-127.5,-32.5
1072,206.25,-135,33.75,11.25,-52.5,-135,-112.5,-135,-35.416666666666664
1073,195,-127.5,18.75,-7.5,-71.25,-157.5,-131.25,-150,-47.916666666666664
1074,150,-123.75,22.5,-7.5,-75,-161.25,-138.75,-150,-53.75
1075,105,-116.25,18.75,-15,-78.75,-165,-142.5,-153.75,-60.833333333333336
1076,108.75,-101.25,15,-18.75,-78.75,-161.25,-142.5,-150,-58.75
1077,150,-86.25,7.5,-22.5,-75,-157.5,-138.75,-150,-52.5
1078,187.5,-52.5,3.75,-30,-82.5,-161.25,-142.5,-153.75,-47.916666666666664
1079,217.5,-22.5,-11.25,-48.75,-97.5,-172.5,-150,-161.25,-49.583333333333336
1080,247.5,-60,-26.25,-63.75,-112.5,-187.5,-165,-176.25,-60.416666666666664
1081,243.75,-123.75,-15,-56.25,-105,-183.75,-161.25,-176.25,-64.16666666666667
1082,183.75,-157.5,3.75,-45,-93.75,-172.5,-150,-168.75,-66.66666666666667
1083,161.25,-142.5,0,-56.25,-105,-180,-153.75,-172.5,-72.08333333333333
1084,176.25,-120,-7.5,-71.25,-116.25,-191.25,-161.25,-176.25,-74.16666666666667
1085,165,-116.25,-3.75,-63.75,-108.75,-187.5,-157.5,-168.75,-71.25
1086,127.5,-123.75,-3.75,-60,-105,-183.75,-157.5,-165,-74.58333333333333
1087,97.5,-112.5,11.25,-48.75,-93.75,-165,-138.75,-153.75,-67.08333333333333
1088,105,-82.5,11.25,-41.25,-82.5,-153.75,-131.25,-150,-58.333333333333336
1089,123.75,-75,0,-60,-93.75,-165,-146.25,-161.25,-64.16666666666667
1090,138.75,-97.5,-7.5,-75,-112.5,-180,-161.25,-176.25,-74.58333333333333
1091,168.75,-116.25,-15,-71.25,-105,-176.25,-157.5,-176.25,-72.08333333333333
1092,213.75,-131.25,-22.5,-82.5,-116.25,-187.5,-165,-183.75,-75.0
1093,221.25,-153.75,-33.75,-97.5,-135,-206.25,-180,-195,-86.66666666666667
1094,161.25,-172.5,-26.25,-90,-123.75,-198.75,-168.75,-183.75,-89.16666666666667
1095,127.5,-187.5,-15,-82.5,-116.25,-191.25,-161.25,-172.5,-88.75
1096,135,-206.25,-18.75,-90,-127.5,-195,-168.75,-180,-94.58333333333333
1097,131.25,-198.75,-22.5,-93.75,-131.25,-198.75,-168.75,-183.75,-96.25
1098,101.25,-168.75,-15,-93.75,-131.25,-198.75,-172.5,-183.75,-95.83333333333333
1099,90,-101.25,-3.75,-82.5,-112.5,-187.5,-165,-180,-82.5
1100,97.5,-45,-3.75,-75,-105,-180,-165,-180,-72.91666666666667
1101,135,-56.25,-22.5,-86.25,-112.5,-187.5,-180,-198.75,-78.75
1102,180,-93.75,-18.75,-82.5,-105,-180,-172.5,-191.25,-73.75
1103,183.75,-120,-15,-75,-101.25,-176.25,-165,-187.5,-72.91666666666667
1104,202.5,-146.25,-33.75,-93.75,-123.75,-198.75,-183.75,-202.5,-86.66666666666667
1105,202.5,-176.25,-41.25,-101.25,-131.25,-206.25,-183.75,-198.75,-92.91666666666667
1106,153.75,-187.5,-30,-90,-120,-195,-168.75,-183.75,-91.25
1107,131.25,-187.5,-18.75,-75,-105,-180,-153.75,-176.25,-85.0
1108,150,-161.25,-11.25,-67.5,-93.75,-168.75,-146.25,-168.75,-74.16666666666667
1109,157.5,-123.75,-11.25,-67.5,-93.75,-165,-146.25,-168.75,-68.75
1110,131.25,-123.75,-3.75,-63.75,-86.25,-157.5,-138.75,-165,-67.5
1111,82.5,-142.5,11.25,-52.5,-75,-142.5,-123.75,-157.5,-66.66666666666667
1112,71.25,-138.75,11.25,-48.75,-71.25,-138.75,-123.75,-153.75,-65.83333333333333
1113,97.5,-127.5,0,-52.5,-78.75,-146.25,-131.25,-161.25,-66.66666666666667
1114,112.5,-131.25,-18.75,-71.25,-93.75,-165,-150,-180,-77.5
1115,146.25,-120,-30,-82.5,-105,-176.25,-161.25,-180,-78.75
1116,225,-97.5,-45,-93.75,-116.25,-187.5,-172.5,-187.5,-75.0
1117,258.75,-101.25,-56.25,-97.5,-123.75,-198.75,-180,-195,-77.08333333333333
1118,217.5,-105,-45,-90,-116.25,-195,-176.25,-187.5,-77.5
1119,191.25,-105,-26.25,-78.75,-105,-183.75,-165,-180,-72.5
1120,187.5,-123.75,-18.75,-67.5,-93.75,-172.5,-157.5,-180,-69.58333333333333
1121,150,-153.75,-11.25,-60,-82.5,-161.25,-146.25,-176.25,-71.25
1122,116.25,-146.25,7.5,-52.5,-75,-150,-135,-161.25,-66.25
1123,93.75,-105,7.5,-56.25,-78.75,-146.25,-135,-165,-65.0
1124,63.75,-78.75,0,-48.75,-67.5,-142.5,-135,-165,-63.75
1125,78.75,-90,-11.25,-52.5,-67.5,-146.25,-142.5,-168.75,-66.66666666666667
1126,131.25,-105,-15,-56.25,-75,-146.25,-138.75,-165,-63.333333333333336
1127,172.5,-108.75,-11.25,-52.5,-67.5,-135,-127.5,-146.25,-52.916666666666664
1128,213.75,-101.25,-26.25,-63.75,-78.75,-150,-135,-153.75,-55.0
1129,225,-108.75,-41.25,-75,-93.75,-168.75,-150,-168.75,-64.58333333333333
1130,183.75,-142.5,-30,-67.5,-86.25,-165,-146.25,-165,-68.75
1131,153.75,-146.25,-15,-52.5,-71.25,-150,-135,-157.5,-63.75
1132,157.5,-116.25,-30,-60,-82.5,-157.5,-142.5,-168.75,-66.66666666666667
1133,168.75,-108.75,-41.25,-78.75,-97.5,-172.5,-157.5,-183.75,-74.58333333333333
1134,153.75,-116.25,-26.25,-67.5,-86.25,-157.5,-142.5,-172.5,-68.33333333333333
1135,116.25,-112.5,0,-45,-63.75,-138.75,-123.75,-153.75,-57.916666666666664
1136,101.25,-93.75,3.75,-37.5,-56.25,-131.25,-120,-153.75,-54.166666666666664
1137,112.5,-93.75,-15,-60,-75,-150,-138.75,-168.75,-65.41666666666667
1138,135,-97.5,-26.25,-67.5,-86.25,-161.25,-153.75,-180,-70.83333333333333
1139,146.25,-108.75,-33.75,-67.5,-86.25,-165,-157.5,-180,-72.5
1140,198.75,-116.25,-45,-82.5,-97.5,-183.75,-168.75,-191.25,-76.25
1141,228.75,-123.75,-60,-93.75,-112.5,-195,-180,-206.25,-82.5
1142,191.25,-123.75,-48.75,-86.25,-105,-183.75,-165,-183.75,-78.33333333333333
1143,165,-116.25,-30,-71.25,-90,-161.25,-138.75,-157.5,-66.66666666666667
1144,172.5,-116.25,-30,-71.25,-86.25,-157.5,-135,-157.5,-64.58333333333333
1145,168.75,-142.5,-26.25,-67.5,-90,-157.5,-138.75,-157.5,-67.91666666666667
1146,168.75,-131.25,-11.25,-60,-82.5,-146.25,-123.75,-150,-59.583333333333336
1147,135,-97.5,-3.75,-52.5,-71.25,-135,-112.5,-138.75,-52.916666666666664
1148,108.75,-90,-11.25,-60,-71.25,-135,-120,-146.25,-58.333333333333336
1149,112.5,-97.5,-22.5,-71.25,-75,-142.5,-127.5,-150,-63.75
1150,123.75,-97.5,-26.25,-71.25,-78.75,-142.5,-131.25,-157.5,-64.58333333333333
1151,165,-71.25,-30,-71.25,-78.75,-146.25,-135,-161.25,-58.75
1152,221.25,-75,-45,-93.75,-105,-176.25,-157.5,-176.25,-67.5
1153,210,-116.25,-45,-97.5,-112.5,-183.75,-161.25,-180,-76.25
1154,150,-146.25,-30,-75,-93.75,-168.75,-150,-172.5,-76.25
1155,172.5,-123.75,-30,-75,-93.75,-165,-150,-176.25,-71.25
1156,198.75,-101.25,-33.75,-82.5,-101.25,-172.5,-153.75,-176.25,-69.16666666666667
1157,165,-127.5,-41.25,-90,-108.75,-180,-161.25,-183.75,-80.83333333333333
1158,135,-138.75,-33.75,-86.25,-105,-176.25,-157.5,-183.75,-82.91666666666667
1159,123.75,-93.75,-26.25,-78.75,-97.5,-165,-150,-176.25,-73.75
1160,105,-67.5,-37.5,-90,-101.25,-161.25,-150,-176.25,-75.41666666666667
1161,97.5,-75,-48.75,-105,-112.5,-172.5,-161.25,-183.75,-84.58333333333333
1162,120,-67.5,-48.75,-101.25,-108.75,-168.75,-157.5,-180,-79.16666666666667
1163,157.5,-86.25,-41.25,-93.75,-101.25,-161.25,-150,-172.5,-72.08333333333333
1164,228.75,-105,-48.75,-105,-108.75,-172.5,-157.5,-180,-72.08333333333333
1165,266.25,-108.75,-52.5,-108.75,-116.25,-183.75,-165,-180,-72.08333333333333
1166,221.25,-142.5,-41.25,-93.75,-101.25,-172.5,-150,-165,-71.66666666666667
1167,198.75,-168.75,-30,-90,-97.5,-165,-142.5,-157.5,-72.5
1168,206.25,-165,-33.75,-101.25,-112.5,-172.5,-150,-165,-77.08333333333333
1169,176.25,-150,-33.75,-101.25,-112.5,-176.25,-150,-168.75,-79.58333333333333
1170,135,-127.5,-22.5,-78.75,-86.25,-153.75,-127.5,-146.25,-67.5
1171,90,-116.25,-11.25,-75,-82.5,-146.25,-123.75,-142.5,-67.5
1172,82.5,-108.75,-26.25,-90,-101.25,-161.25,-142.5,-161.25,-78.75
1173,97.5,-112.5,-41.25,-105,-108.75,-168.75,-153.75,-172.5,-85.0
1174,112.5,-127.5,-45,-108.75,-116.25,-176.25,-157.5,-172.5,-87.91666666666667
1175,138.75,-120,-45,-105,-116.25,-176.25,-153.75,-165,-82.5
1176,198.75,-120,-52.5,-108.75,-120,-187.5,-161.25,-172.5,-80.41666666666667
1177,236.25,-135,-56.25,-120,-131.25,-195,-168.75,-180,-83.33333333333333
1178,183.75,-168.75,-60,-127.5,-138.75,-198.75,-165,-180,-95.0
1179,131.25,-198.75,-60,-123.75,-135,-198.75,-168.75,-183.75,-104.16666666666667
1180,108.75,-191.25,-56.25,-120,-127.5,-198.75,-172.5,-187.5,-105.0
1181,120,-161.25,-52.5,-116.25,-131.25,-202.5,-176.25,-191.25,-101.25
1182,161.25,-116.25,-45,-108.75,-127.5,-195,-172.5,-187.5,-87.91666666666667
1183,157.5,-97.5,-33.75,-105,-120,-183.75,-165,-180,-80.83333333333333
1184,105,-90,-26.25,-97.5,-105,-168.75,-153.75,-172.5,-78.75
1185,82.5,-78.75,-41.25,-108.75,-116.25,-176.25,-161.25,-176.25,-86.25
1186,105,-67.5,-60,-131.25,-138.75,-191.25,-172.5,-183.75,-93.33333333333333
1187,142.5,-52.5,-71.25,-142.5,-146.25,-198.75,-180,-191.25,-93.33333333333333
1188,206.25,-78.75,-86.25,-150,-157.5,-217.5,-195,-210,-98.75
1189,240,-135,-93.75,-161.25,-172.5,-232.5,-210,-221.25,-109.58333333333333
1190,191.25,-161.25,-71.25,-138.75,-153.75,-217.5,-191.25,-206.25,-105.41666666666667
1191,142.5,-157.5,-56.25,-123.75,-135,-206.25,-180,-195,-101.25
1192,127.5,-157.5,-60,-135,-146.25,-213.75,-187.5,-198.75,-107.91666666666667
1193,150,-127.5,-56.25,-131.25,-146.25,-210,-183.75,-191.25,-99.58333333333333
1194,157.5,-101.25,-45,-116.25,-131.25,-198.75,-172.5,-183.75,-87.91666666666667
1195,116.25,-90,-41.25,-112.5,-127.5,-191.25,-168.75,-187.5,-89.16666666666667
1196,97.5,-75,-56.25,-123.75,-135,-191.25,-172.5,-191.25,-94.16666666666667
1197,108.75,-82.5,-63.75,-131.25,-142.5,-195,-176.25,-195,-97.5
1198,112.5,-97.5,-60,-135,-142.5,-202.5,-183.75,-202.5,-101.25
1199,135,-93.75,-56.25,-127.5,-135,-195,-180,-198.75,-94.58333333333333
1200,202.5,-108.75,-63.75,-131.25,-138.75,-202.5,-180,-195,-90.83333333333333
1201,206.25,-176.25,-75,-146.25,-157.5,-217.5,-191.25,-206.25,-107.08333333333333
1202,138.75,-213.75,-78.75,-153.75,-165,-225,-191.25,-206.25,-121.66666666666667
1203,135,-168.75,-67.5,-146.25,-153.75,-213.75,-180,-191.25,-109.58333333333333
1204,153.75,-131.25,-75,-150,-157.5,-217.5,-191.25,-206.25,-108.33333333333333
1205,120,-153.75,-93.75,-168.75,-176.25,-240,-213.75,-228.75,-128.33333333333334
1206,86.25,-180,-78.75,-153.75,-161.25,-225,-198.75,-213.75,-125.0
1207,78.75,-172.5,-48.75,-127.5,-135,-195,-168.75,-187.5,-106.25
1208,71.25,-135,-45,-127.5,-135,-195,-168.75,-187.5,-102.5
1209,75,-120,-63.75,-146.25,-153.75,-213.75,-191.25,-206.25,-113.33333333333333
1210,112.5,-105,-75,-146.25,-153.75,-213.75,-191.25,-202.5,-108.33333333333333
1211,146.25,-97.5,-75,-142.5,-150,-210,-187.5,-198.75,-101.66666666666667
1212,187.5,-123.75,-82.5,-153.75,-161.25,-221.25,-198.75,-206.25,-106.66666666666667
1213,236.25,-138.75,-86.25,-161.25,-172.5,-236.25,-210,-213.75,-109.16666666666667
1214,206.25,-157.5,-82.5,-150,-165,-232.5,-202.5,-210,-110.41666666666667
1215,172.5,-153.75,-71.25,-142.5,-153.75,-221.25,-191.25,-202.5,-107.08333333333333
1216,142.5,-168.75,-67.5,-153.75,-165,-225,-195,-206.25,-115.41666666666667
1217,105,-217.5,-71.25,-150,-161.25,-225,-191.25,-206.25,-124.16666666666667
1218,112.5,-198.75,-63.75,-135,-142.5,-210,-176.25,-191.25,-111.66666666666667
1219,108.75,-131.25,-56.25,-127.5,-135,-198.75,-168.75,-180,-98.75
1220,71.25,-120,-56.25,-135,-138.75,-195,-168.75,-187.5,-103.33333333333333
1221,82.5,-108.75,-67.5,-142.5,-150,-202.5,-183.75,-206.25,-108.75
1222,131.25,-67.5,-71.25,-146.25,-153.75,-206.25,-187.5,-210,-101.25
1223,150,-75,-75,-153.75,-157.5,-210,-191.25,-210,-102.5
1224,165,-146.25,-90,-165,-172.5,-232.5,-210,-225,-119.58333333333333
1225,183.75,-210,-93.75,-168.75,-176.25,-240,-217.5,-228.75,-127.91666666666667
1226,187.5,-191.25,-78.75,-146.25,-153.75,-217.5,-187.5,-202.5,-110.0
1227,176.25,-135,-63.75,-131.25,-138.75,-195,-168.75,-183.75,-93.33333333333333
1228,168.75,-123.75,-63.75,-138.75,-150,-210,-180,-195,-99.16666666666667
1229,187.5,-123.75,-71.25,-150,-165,-221.25,-191.25,-206.25,-104.58333333333333
1230,146.25,-138.75,-63.75,-150,-165,-213.75,-183.75,-198.75,-107.5
1231,71.25,-150,-45,-127.5,-138.75,-191.25,-161.25,-183.75,-102.91666666666667
1232,45,-138.75,-37.5,-120,-127.5,-180,-153.75,-176.25,-98.75
1233,78.75,-127.5,-52.5,-135,-138.75,-195,-172.5,-191.25,-103.75
1234,120,-120,-60,-138.75,-146.25,-202.5,-183.75,-198.75,-103.33333333333333
1235,138.75,-101.25,-60,-135,-142.5,-202.5,-187.5,-202.5,-99.16666666666667
1236,202.5,-90,-82.5,-150,-161.25,-225,-210,-221.25,-104.16666666666667
1237,247.5,-90,-82.5,-150,-165,-232.5,-213.75,-221.25,-100.83333333333333
1238,191.25,-97.5,-48.75,-127.5,-142.5,-210,-183.75,-195,-90.41666666666667
1239,123.75,-101.25,-30,-116.25,-127.5,-191.25,-165,-180,-87.5
1240,127.5,-93.75,-30,-120,-131.25,-191.25,-165,-180,-87.08333333333333
1241,131.25,-112.5,-26.25,-112.5,-131.25,-187.5,-161.25,-183.75,-87.08333333333333
1242,105,-123.75,-15,-101.25,-123.75,-183.75,-157.5,-183.75,-87.08333333333333
1243,71.25,-101.25,0,-90,-108.75,-172.5,-150,-176.25,-80.83333333333333
1244,52.5,-86.25,7.5,-86.25,-108.75,-172.5,-150,-168.75,-79.16666666666667
1245,67.5,-101.25,0,-93.75,-116.25,-180,-157.5,-176.25,-84.16666666666667
1246,123.75,-90,-3.75,-90,-108.75,-176.25,-157.5,-176.25,-75.41666666666667
1247,165,-52.5,-11.25,-93.75,-112.5,-176.25,-161.25,-176.25,-68.75
1248,210,-22.5,-22.5,-105,-127.5,-187.5,-168.75,-183.75,-67.5
1249,225,-26.25,-30,-116.25,-138.75,-202.5,-183.75,-195,-74.16666666666667
1250,168.75,-45,-22.5,-116.25,-138.75,-206.25,-183.75,-206.25,-83.33333333333333
1251,138.75,-60,-7.5,-101.25,-127.5,-195,-172.5,-202.5,-80.83333333333333
1252,153.75,-67.5,15,-82.5,-108.75,-172.5,-150,-180,-65.83333333333333
1253,150,-90,30,-67.5,-90,-153.75,-135,-157.5,-57.083333333333336
1254,101.25,-116.25,26.25,-63.75,-82.5,-142.5,-123.75,-153.75,-61.666666666666664
1255,86.25,-75,22.5,-60,-75,-131.25,-112.5,-142.5,-54.166666666666664
1256,105,-33.75,15,-56.25,-67.5,-120,-105,-131.25,-43.75
1257,127.5,-37.5,-15,-78.75,-86.25,-138.75,-123.75,-146.25,-55.416666666666664
1258,146.25,-45,-45,-97.5,-97.5,-146.25,-135,-153.75,-63.75
1259,168.75,-22.5,-60,-97.5,-97.5,-146.25,-131.25,-150,-59.583333333333336
1260,217.5,-22.5,-90,-116.25,-112.5,-165,-150,-168.75,-67.5
1261,243.75,-63.75,-116.25,-138.75,-138.75,-187.5,-168.75,-191.25,-84.58333333333333
1262,217.5,-78.75,-105,-127.5,-127.5,-180,-157.5,-183.75,-82.5
1263,195,-71.25,-90,-120,-116.25,-168.75,-146.25,-172.5,-76.66666666666667
1264,198.75,-45,-86.25,-116.25,-112.5,-157.5,-135,-157.5,-67.91666666666667
1265,187.5,-30,-97.5,-138.75,-131.25,-168.75,-142.5,-168.75,-76.66666666666667
1266,153.75,-30,-101.25,-146.25,-138.75,-176.25,-150,-172.5,-84.58333333333333
1267,123.75,-26.25,-82.5,-127.5,-120,-165,-138.75,-157.5,-77.08333333333333
1268,108.75,-52.5,-78.75,-127.5,-123.75,-168.75,-142.5,-161.25,-82.91666666666667
1269,116.25,-93.75,-82.5,-131.25,-127.5,-172.5,-146.25,-161.25,-88.75
1270,138.75,-105,-71.25,-123.75,-120,-168.75,-146.25,-157.5,-83.75
1271,176.25,-78.75,-63.75,-112.5,-105,-157.5,-138.75,-150,-70.0
1272,243.75,-71.25,-82.5,-127.5,-123.75,-180,-161.25,-176.25,-75.41666666666667
1273,240,-108.75,-90,-142.5,-146.25,-206.25,-183.75,-195,-92.5
1274,161.25,-142.5,-86.25,-142.5,-150,-210,-183.75,-198.75,-105.83333333333333
1275,161.25,-116.25,-82.5,-150,-161.25,-217.5,-187.5,-206.25,-106.66666666666667
1276,202.5,-90,-93.75,-161.25,-172.5,-228.75,-198.75,-217.5,-106.66666666666667
1277,195,-82.5,-101.25,-165,-172.5,-228.75,-202.5,-217.5,-108.33333333333333
1278,165,-75,-86.25,-153.75,-157.5,-213.75,-183.75,-198.75,-100.41666666666667
1279,131.25,-75,-67.5,-131.25,-135,-191.25,-168.75,-191.25,-92.08333333333333
1280,93.75,-97.5,-63.75,-131.25,-131.25,-187.5,-168.75,-191.25,-97.5
1281,75,-127.5,-78.75,-146.25,-146.25,-198.75,-180,-202.5,-111.66666666666667
1282,67.5,-153.75,-86.25,-157.5,-153.75,-202.5,-187.5,-213.75,-120.83333333333333
1283,71.25,-161.25,-86.25,-161.25,-153.75,-210,-191.25,-217.5,-123.33333333333333
1284,153.75,-157.5,-101.25,-168.75,-165,-217.5,-195,-213.75,-118.33333333333333
1285,210,-195,-105,-172.5,-172.5,-225,-198.75,-213.75,-119.16666666666667
1286,161.25,-221.25,-82.5,-153.75,-157.5,-213.75,-187.5,-202.5,-117.5
1287,127.5,-191.25,-78.75,-153.75,-153.75,-210,-183.75,-202.5,-116.25
1288,131.25,-183.75,-86.25,-161.25,-165,-221.25,-191.25,-206.25,-120.41666666666667
1289,123.75,-210,-86.25,-165,-165,-217.5,-191.25,-210,-124.58333333333333
1290,105,-195,-75,-150,-146.25,-202.5,-180,-202.5,-116.25
1291,63.75,-165,-67.5,-142.5,-142.5,-198.75,-180,-206.25,-115.41666666666667
1292,37.5,-146.25,-75,-153.75,-153.75,-210,-195,-221.25,-124.16666666666667
1293,52.5,-116.25,-93.75,-168.75,-165,-221.25,-210,-232.5,-128.33333333333334
1294,60,-108.75,-112.5,-187.5,-180,-236.25,-221.25,-243.75,-136.66666666666666
1295,105,-93.75,-112.5,-187.5,-183.75,-240,-221.25,-240,-130.41666666666666
1296,225,-67.5,-116.25,-183.75,-180,-243.75,-225,-236.25,-114.16666666666667
1297,251.25,-105,-131.25,-195,-195,-262.5,-236.25,-243.75,-124.16666666666667
1298,153.75,-168.75,-123.75,-187.5,-187.5,-258.75,-232.5,-247.5,-139.16666666666666
1299,101.25,-180,-108.75,-176.25,-176.25,-243.75,-221.25,-240,-138.33333333333334
1300,138.75,-168.75,-90,-161.25,-157.5,-221.25,-198.75,-221.25,-120.0
1301,153.75,-172.5,-75,-142.5,-142.5,-206.25,-187.5,-210,-109.16666666666667
1302,93.75,-183.75,-67.5,-146.25,-142.5,-202.5,-183.75,-210,-115.83333333333333
1303,60,-157.5,-60,-138.75,-135,-191.25,-172.5,-198.75,-110.41666666666667
1304,48.75,-153.75,-63.75,-131.25,-127.5,-191.25,-172.5,-195,-109.58333333333333
1305,60,-176.25,-75,-142.5,-138.75,-195,-180,-202.5,-116.66666666666667
1306,101.25,-176.25,-82.5,-153.75,-153.75,-206.25,-191.25,-213.75,-119.58333333333333
1307,135,-168.75,-82.5,-146.25,-153.75,-217.5,-206.25,-228.75,-118.75
1308,157.5,-210,-67.5,-123.75,-161.25,-243.75,-240,-262.5,-127.91666666666667
1309,180,-255,-15,-71.25,-150,-258.75,-262.5,-285,-124.16666666666667
1310,180,-270,60,7.5,-123.75,-262.5,-277.5,-311.25,-110.83333333333333
1311,176.25,-273.75,135,82.5,-105,-281.25,-307.5,-345,-102.08333333333333
1312,161.25,-273.75,195,135,-97.5,-296.25,-330,-367.5,-97.08333333333333
1313,153.75,-243.75,247.5,202.5,-60,-277.5,-322.5,-360,-73.33333333333333
1314,183.75,-165,303.75,307.5,26.25,-213.75,-270,-315,-15.833333333333334
1315,198.75,-75,352.5,397.5,112.5,-138.75,-202.5,-258.75,42.916666666666664
1316,210,-7.5,382.5,476.25,191.25,-63.75,-135,-198.75,95.0
1317,273.75,60,397.5,547.5,273.75,18.75,-63.75,-138.75,152.08333333333334
1318,356.25,142.5,390,585,330,82.5,3.75,-71.25,202.08333333333334
1319,397.5,225,390,641.25,405,168.75,93.75,11.25,259.1666666666667
1320,498.75,285,382.5,727.5,517.5,288.75,210,112.5,335.8333333333333
1321,577.5,352.5,352.5,772.5,626.25,420,341.25,225,407.5
1322,558.75,468.75,303.75,738.75,697.5,543.75,483.75,360,461.6666666666667
1323,562.5,611.25,217.5,663.75,768.75,682.5,641.25,510,517.5
1324,585,753.75,172.5,652.5,888.75,862.5,828.75,682.5,602.9166666666666
1325,600,930,142.5,660,1008.75,1042.5,1016.25,851.25,694.5833333333334
1326,611.25,1162.5,11.25,558.75,1061.25,1196.25,1207.5,1042.5,761.25
1327,592.5,1361.25,-187.5,371.25,1080,1346.25,1402.5,1241.25,800.8333333333334
1328,562.5,1455,-371.25,195,1110,1496.25,1575,1402.5,825.0
1329,577.5,1537.5,-536.25,-26.25,1125,1627.5,1721.25,1522.5,838.75
1330,581.25,1586.25,-626.25,-187.5,1155,1747.5,1837.5,1597.5,854.5833333333334
1331,521.25,1488.75,-603.75,-206.25,1226.25,1841.25,1897.5,1605,863.3333333333334
1332,498.75,1380,-622.5,-258.75,1252.5,1878.75,1905,1563.75,844.1666666666666
1333,487.5,1301.25,-716.25,-416.25,1177.5,1822.5,1837.5,1481.25,775.0
1334,405,1132.5,-772.5,-562.5,1023.75,1638.75,1650,1308.75,647.0833333333334
1335,288.75,900,-742.5,-648.75,817.5,1342.5,1357.5,1057.5,485.8333333333333
1336,180,678.75,-693.75,-738.75,540,975,1016.25,791.25,305.4166666666667
1337,112.5,513.75,-660,-847.5,217.5,581.25,671.25,540,125.41666666666667
1338,41.25,378.75,-648.75,-960,-93.75,221.25,356.25,311.25,-43.75
1339,-60,225,-652.5,-1020,-292.5,-18.75,123.75,127.5,-174.16666666666666
1340,-101.25,112.5,-626.25,-982.5,-337.5,-123.75,-11.25,-7.5,-230.83333333333334
1341,-86.25,33.75,-581.25,-896.25,-315,-153.75,-90,-105,-243.75
1342,-52.5,-15,-540,-810,-273.75,-150,-116.25,-146.25,-233.75
1343,-33.75,-18.75,-536.25,-735,-225,-120,-93.75,-138.75,-211.25
1344,30,-11.25,-532.5,-660,-195,-101.25,-71.25,-123.75,-185.0
1345,105,-26.25,-506.25,-600,-206.25,-120,-82.5,-127.5,-173.75
1346,112.5,-41.25,-453.75,-532.5,-202.5,-127.5,-82.5,-120,-160.83333333333334
1347,90,-63.75,-408.75,-461.25,-180,-123.75,-82.5,-116.25,-149.58333333333334
1348,97.5,-78.75,-367.5,-390,-150,-120,-82.5,-120,-134.58333333333334
1349,112.5,-52.5,-318.75,-311.25,-105,-90,-60,-101.25,-102.91666666666667
1350,101.25,-30,-277.5,-247.5,-60,-56.25,-37.5,-82.5,-76.66666666666667
1351,101.25,3.75,-232.5,-195,-26.25,-33.75,-22.5,-78.75,-53.75
1352,116.25,26.25,-187.5,-142.5,3.75,-18.75,-18.75,-78.75,-33.333333333333336
1353,120,3.75,-161.25,-112.5,15,-18.75,-26.25,-90,-30.0
1354,142.5,-11.25,-135,-90,18.75,-22.5,-30,-90,-24.166666666666668
1355,168.75,3.75,-105,-71.25,22.5,-26.25,-33.75,-93.75,-15.0
1356,213.75,0,-97.5,-67.5,11.25,-45,-52.5,-105,-15.833333333333334
1357,243.75,-48.75,-97.5,-63.75,0,-63.75,-71.25,-123.75,-25.0
1358,217.5,-93.75,-93.75,-60,-3.75,-78.75,-86.25,-135,-37.083333333333336
1359,168.75,-97.5,-75,-48.75,0,-75,-78.75,-131.25,-37.5
1360,165,-75,-75,-48.75,-3.75,-75,-78.75,-131.25,-35.833333333333336
1361,168.75,-63.75,-82.5,-56.25,-18.75,-90,-90,-138.75,-41.25
1362,138.75,-45,-63.75,-48.75,-15,-82.5,-86.25,-142.5,-38.333333333333336
1363,101.25,-22.5,-37.5,-26.25,3.75,-63.75,-71.25,-138.75,-28.333333333333332
1364,86.25,-18.75,-26.25,-15,18.75,-56.25,-67.5,-135,-23.75
1365,108.75,-26.25,-37.5,-15,15,-60,-75,-138.75,-25.416666666666668
1366,146.25,-37.5,-56.25,-18.75,11.25,-71.25,-93.75,-150,-30.0
1367,157.5,-67.5,-75,-37.5,-11.25,-93.75,-112.5,-165,-45.0
1368,198.75,-90,-82.5,-45,-26.25,-108.75,-120,-168.75,-49.166666666666664
1369,247.5,-105,-78.75,-48.75,-30,-112.5,-123.75,-168.75,-46.666666666666664
1370,221.25,-131.25,-71.25,-37.5,-26.25,-112.5,-120,-165,-49.166666666666664
1371,187.5,-127.5,-60,-26.25,-18.75,-105,-108.75,-157.5,-46.25
1372,168.75,-108.75,-56.25,-22.5,-15,-101.25,-108.75,-157.5,-44.583333333333336
1373,176.25,-90,-56.25,-22.5,-11.25,-97.5,-105,-153.75,-40.0
1374,168.75,-71.25,-48.75,-18.75,-7.5,-86.25,-90,-135,-32.083333333333336
1375,116.25,-48.75,-41.25,0,11.25,-71.25,-78.75,-131.25,-27.083333333333332
1376,71.25,-30,-33.75,0,11.25,-67.5,-82.5,-142.5,-30.416666666666668
1377,78.75,-33.75,-52.5,-18.75,-11.25,-86.25,-105,-165,-43.75
1378,127.5,-22.5,-63.75,-26.25,-15,-97.5,-116.25,-172.5,-42.916666666666664
1379,153.75,7.5,-67.5,-26.25,-18.75,-101.25,-116.25,-168.75,-37.5
1380,191.25,3.75,-86.25,-45,-37.5,-120,-131.25,-183.75,-45.416666666666664
1381,228.75,-22.5,-90,-41.25,-33.75,-120,-127.5,-176.25,-42.5
1382,225,-37.5,-63.75,-7.5,0,-86.25,-90,-138.75,-22.083333333333332
1383,195,-56.25,-41.25,15,18.75,-67.5,-71.25,-123.75,-14.583333333333334
1384,195,-82.5,-33.75,22.5,22.5,-63.75,-71.25,-120,-14.583333333333334
1385,191.25,-108.75,-37.5,22.5,22.5,-63.75,-71.25,-120,-18.333333333333332
1386,172.5,-108.75,-26.25,30,30,-56.25,-60,-116.25,-15.0
1387,168.75,-82.5,-11.25,48.75,45,-37.5,-45,-97.5,-1.25
1388,153.75,-63.75,-11.25,52.5,56.25,-26.25,-41.25,-86.25,3.75
1389,150,-56.25,-26.25,41.25,52.5,-30,-48.75,-97.5,-1.6666666666666667
1390,165,-45,-37.5,33.75,45,-37.5,-56.25,-105,-4.166666666666667
1391,191.25,-37.5,-45,37.5,45,-37.5,-52.5,-101.25,0.0
1392,243.75,-41.25,-63.75,18.75,26.25,-52.5,-67.5,-116.25,-5.833333333333333
1393,285,-41.25,-71.25,15,18.75,-63.75,-75,-123.75,-6.25
1394,243.75,-71.25,-56.25,30,30,-60,-67.5,-116.25,-7.5
1395,210,-71.25,-45,37.5,33.75,-60,-71.25,-120,-9.583333333333334
1396,198.75,-52.5,-48.75,30,26.25,-67.5,-78.75,-127.5,-13.333333333333334
1397,202.5,-41.25,-48.75,37.5,33.75,-63.75,-75,-123.75,-8.75
1398,187.5,-30,-45,41.25,41.25,-52.5,-67.5,-120,-5.0
1399,165,-15,-41.25,48.75,56.25,-37.5,-48.75,-105,2.5
1400,168.75,3.75,-41.25,52.5,63.75,-18.75,-37.5,-93.75,10.833333333333334
1401,198.75,45,-45,56.25,67.5,-15,-33.75,-90,20.416666666666668
1402,187.5,33.75,-67.5,41.25,52.5,-30,-48.75,-105,7.083333333333333
1403,176.25,3.75,-78.75,30,41.25,-45,-63.75,-112.5,-5.416666666666667
1404,247.5,-3.75,-75,37.5,41.25,-48.75,-60,-105,3.75
1405,333.75,-18.75,-67.5,48.75,52.5,-41.25,-45,-90,19.166666666666668
1406,311.25,-48.75,-45,75,75,-22.5,-26.25,-75,27.083333333333332
1407,247.5,-82.5,-37.5,86.25,86.25,-11.25,-18.75,-71.25,22.083333333333332
1408,232.5,-86.25,-30,86.25,86.25,-11.25,-18.75,-75,20.416666666666668
1409,225,-75,-33.75,82.5,78.75,-11.25,-18.75,-75,19.166666666666668
1410,198.75,-56.25,-30,93.75,93.75,3.75,-3.75,-60,26.666666666666668
1411,180,-26.25,-18.75,112.5,116.25,30,18.75,-45,40.833333333333336
1412,165,-3.75,-18.75,120,123.75,41.25,22.5,-45,45.0
1413,183.75,7.5,-30,105,116.25,33.75,11.25,-60,40.833333333333336
1414,221.25,15,-48.75,90,101.25,18.75,3.75,-63.75,37.5
1415,232.5,30,-60,90,101.25,18.75,3.75,-63.75,39.166666666666664
1416,266.25,33.75,-75,82.5,90,3.75,-11.25,-75,35.0
1417,292.5,0,-90,60,67.5,-22.5,-33.75,-93.75,20.0
1418,262.5,-33.75,-93.75,63.75,63.75,-26.25,-30,-90,12.916666666666666
1419,258.75,-3.75,-71.25,86.25,86.25,-3.75,-3.75,-67.5,31.25
1420,300,52.5,-52.5,108.75,108.75,18.75,11.25,-48.75,55.416666666666664
1421,322.5,63.75,-52.5,112.5,112.5,22.5,15,-48.75,60.833333333333336
1422,288.75,26.25,-56.25,112.5,116.25,30,26.25,-37.5,56.25
1423,228.75,3.75,-45,123.75,131.25,48.75,41.25,-22.5,56.666666666666664
1424,228.75,37.5,-37.5,135,142.5,60,48.75,-22.5,65.83333333333333
1425,251.25,75,-52.5,127.5,135,56.25,41.25,-22.5,67.91666666666667
1426,255,90,-67.5,116.25,123.75,45,33.75,-26.25,63.333333333333336
1427,258.75,82.5,-75,116.25,120,37.5,22.5,-37.5,58.333333333333336
1428,326.25,56.25,-78.75,112.5,112.5,26.25,11.25,-45,57.916666666666664
1429,356.25,18.75,-75,112.5,108.75,22.5,11.25,-45,56.666666666666664
1430,303.75,18.75,-60,127.5,123.75,33.75,26.25,-30,60.416666666666664
1431,292.5,71.25,-56.25,131.25,127.5,37.5,33.75,-26.25,67.91666666666667
1432,318.75,93.75,-60,123.75,120,33.75,30,-30,70.0
1433,311.25,78.75,-60,123.75,116.25,30,26.25,-33.75,65.83333333333333
1434,288.75,60,-60,123.75,116.25,33.75,30,-30,62.5
1435,273.75,45,-41.25,146.25,135,52.5,48.75,-18.75,71.25
1436,258.75,52.5,-30,157.5,150,67.5,60,-7.5,78.75
1437,262.5,86.25,-41.25,150,142.5,63.75,60,-7.5,79.58333333333333
1438,281.25,63.75,-48.75,142.5,142.5,67.5,63.75,-3.75,78.75
1439,288.75,15,-60,135,135,60,56.25,-11.25,68.75
1440,330,22.5,-71.25,120,116.25,41.25,37.5,-26.25,63.333333333333336
1441,378.75,37.5,-90,97.5,90,15,15,-45,55.416666666666664
1442,341.25,15,-78.75,101.25,90,15,18.75,-37.5,51.666666666666664
1443,292.5,-7.5,-56.25,120,112.5,37.5,45,-11.25,59.166666666666664
1444,311.25,-7.5,-41.25,138.75,127.5,52.5,63.75,7.5,72.5
1445,326.25,11.25,-37.5,138.75,123.75,48.75,60,3.75,75.0
1446,315,48.75,-41.25,131.25,112.5,37.5,48.75,-7.5,71.66666666666667
1447,277.5,67.5,-41.25,123.75,108.75,37.5,48.75,-7.5,68.33333333333333
1448,258.75,82.5,-37.5,120,105,37.5,48.75,-3.75,67.91666666666667
1449,281.25,93.75,-41.25,116.25,93.75,30,41.25,-11.25,67.08333333333333
1450,300,90,-45,116.25,97.5,30,37.5,-18.75,67.5
1451,303.75,90,-52.5,116.25,97.5,26.25,33.75,-22.5,65.83333333333333
1452,348.75,78.75,-60,101.25,78.75,7.5,18.75,-33.75,60.0
1453,401.25,60,-60,93.75,67.5,-3.75,11.25,-37.5,59.166666666666664
1454,390,56.25,-45,105,71.25,-3.75,15,-30,62.083333333333336
1455,367.5,93.75,-41.25,101.25,67.5,-7.5,15,-30,62.916666666666664
1456,360,120,-33.75,101.25,67.5,-3.75,18.75,-22.5,67.5
1457,348.75,101.25,-33.75,105,63.75,-3.75,18.75,-18.75,64.58333333333333
1458,296.25,48.75,-30,93.75,52.5,-11.25,11.25,-33.75,47.5
1459,236.25,11.25,-33.75,86.25,48.75,-15,3.75,-45,32.5
1460,236.25,33.75,-26.25,105,71.25,7.5,18.75,-30,46.25
1461,243.75,41.25,-18.75,108.75,75,11.25,22.5,-26.25,50.833333333333336
1462,251.25,48.75,-7.5,116.25,78.75,11.25,22.5,-26.25,55.0
1463,281.25,71.25,0,112.5,75,11.25,26.25,-22.5,61.666666666666664
1464,326.25,48.75,-18.75,86.25,45,-15,0,-45,47.5
1465,345,3.75,-41.25,67.5,26.25,-45,-26.25,-71.25,28.75
1466,292.5,-11.25,-30,63.75,22.5,-48.75,-30,-75,20.416666666666668
1467,251.25,-15,-11.25,71.25,22.5,-45,-26.25,-78.75,18.75
1468,247.5,-33.75,-3.75,78.75,33.75,-41.25,-26.25,-82.5,19.166666666666668
1469,228.75,-52.5,3.75,82.5,30,-41.25,-22.5,-75,17.083333333333332
1470,221.25,-22.5,15,82.5,33.75,-37.5,-18.75,-67.5,22.916666666666668
1471,213.75,45,18.75,90,41.25,-33.75,-18.75,-71.25,31.666666666666668
1472,195,93.75,18.75,86.25,45,-33.75,-26.25,-78.75,33.333333333333336
1473,191.25,105,0,63.75,22.5,-56.25,-52.5,-105,18.75
1474,198.75,86.25,-7.5,48.75,11.25,-75,-78.75,-127.5,6.25
1475,206.25,67.5,-11.25,37.5,0,-82.5,-86.25,-135,-0.4166666666666667
1476,247.5,45,-26.25,22.5,-15,-93.75,-93.75,-142.5,-6.25
1477,266.25,22.5,-37.5,11.25,-26.25,-105,-101.25,-150,-13.333333333333334
1478,202.5,-3.75,-37.5,3.75,-30,-108.75,-97.5,-138.75,-23.333333333333332
1479,138.75,-52.5,-22.5,15,-15,-90,-78.75,-123.75,-25.416666666666668
1480,161.25,-93.75,3.75,33.75,3.75,-75,-60,-116.25,-15.833333333333334
1481,202.5,-112.5,33.75,52.5,22.5,-56.25,-45,-97.5,0.0
1482,191.25,-108.75,52.5,63.75,30,-52.5,-37.5,-86.25,5.833333333333333
1483,131.25,-86.25,48.75,56.25,26.25,-60,-48.75,-101.25,-3.75
1484,105,-52.5,37.5,41.25,18.75,-71.25,-67.5,-123.75,-12.5
1485,150,3.75,26.25,30,7.5,-75,-78.75,-131.25,-7.5
1486,165,18.75,22.5,22.5,0,-82.5,-86.25,-138.75,-8.75
1487,161.25,3.75,22.5,26.25,7.5,-78.75,-86.25,-138.75,-9.166666666666666
1488,198.75,-15,0,0,-15,-101.25,-101.25,-153.75,-20.833333333333332
1489,213.75,-48.75,-22.5,-26.25,-45,-135,-127.5,-176.25,-40.833333333333336
1490,168.75,-71.25,-22.5,-33.75,-48.75,-138.75,-131.25,-183.75,-51.25
1491,146.25,-67.5,-11.25,-26.25,-41.25,-123.75,-120,-176.25,-46.666666666666664
1492,150,-82.5,-3.75,-18.75,-37.5,-123.75,-120,-176.25,-45.833333333333336
1493,138.75,-108.75,-3.75,-18.75,-37.5,-120,-116.25,-172.5,-48.75
1494,116.25,-108.75,3.75,-15,-33.75,-116.25,-108.75,-157.5,-46.666666666666664
1495,71.25,-108.75,18.75,-7.5,-26.25,-108.75,-101.25,-150,-45.833333333333336
1496,63.75,-93.75,26.25,0,-15,-93.75,-93.75,-146.25,-39.166666666666664
1497,127.5,-45,30,3.75,-7.5,-86.25,-93.75,-146.25,-24.166666666666668
1498,146.25,-48.75,7.5,-26.25,-33.75,-112.5,-116.25,-172.5,-39.583333333333336
1499,90,-93.75,-22.5,-52.5,-63.75,-142.5,-146.25,-195,-69.58333333333333
1500,90,-120,-37.5,-67.5,-75,-157.5,-161.25,-202.5,-81.25
1501,138.75,-120,-33.75,-63.75,-71.25,-157.5,-157.5,-198.75,-73.75
1502,131.25,-105,-26.25,-60,-67.5,-150,-146.25,-191.25,-68.33333333333333
1503,97.5,-105,-11.25,-63.75,-75,-146.25,-138.75,-183.75,-69.58333333333333
1504,105,-105,-11.25,-60,-75,-146.25,-138.75,-183.75,-68.33333333333333
1505,112.5,-101.25,-18.75,-56.25,-67.5,-146.25,-142.5,-195,-68.33333333333333
1506,93.75,-97.5,-18.75,-56.25,-63.75,-146.25,-142.5,-198.75,-70.0
1507,48.75,-90,-11.25,-52.5,-60,-142.5,-142.5,-195,-71.66666666666667
1508,30,-48.75,-3.75,-48.75,-56.25,-138.75,-142.5,-191.25,-66.66666666666667
1509,71.25,-3.75,-11.25,-60,-63.75,-142.5,-150,-195,-61.666666666666664
1510,93.75,-15,-33.75,-75,-78.75,-153.75,-161.25,-210,-70.41666666666667
1511,93.75,-22.5,-33.75,-78.75,-82.5,-150,-157.5,-206.25,-70.83333333333333
1512,120,-33.75,-30,-78.75,-82.5,-150,-157.5,-202.5,-68.33333333333333
1513,161.25,-71.25,-48.75,-93.75,-101.25,-180,-180,-221.25,-81.66666666666667
1514,127.5,-101.25,-52.5,-97.5,-105,-183.75,-180,-228.75,-91.25
1515,90,-101.25,-33.75,-75,-82.5,-161.25,-161.25,-210,-81.66666666666667
1516,86.25,-108.75,-15,-60,-71.25,-150,-150,-195,-73.75
1517,78.75,-138.75,-3.75,-56.25,-67.5,-146.25,-146.25,-187.5,-74.16666666666667
1518,75,-138.75,3.75,-45,-56.25,-138.75,-142.5,-183.75,-69.58333333333333
1519,63.75,-116.25,11.25,-33.75,-41.25,-123.75,-127.5,-172.5,-60.0
1520,37.5,-116.25,11.25,-37.5,-45,-116.25,-123.75,-168.75,-62.083333333333336
1521,48.75,-101.25,0,-45,-48.75,-116.25,-123.75,-168.75,-61.666666666666664
1522,78.75,-86.25,-3.75,-41.25,-45,-116.25,-123.75,-172.5,-56.666666666666664
1523,90,-67.5,0,-33.75,-41.25,-116.25,-127.5,-176.25,-52.5
1524,127.5,-71.25,-11.25,-45,-48.75,-127.5,-138.75,-183.75,-55.416666666666664
1525,138.75,-161.25,-26.25,-63.75,-75,-153.75,-157.5,-198.75,-77.5
1526,97.5,-213.75,-22.5,-63.75,-75,-153.75,-153.75,-195,-86.66666666666667
1527,90,-168.75,-11.25,-45,-56.25,-138.75,-138.75,-180,-72.08333333333333
1528,127.5,-97.5,-7.5,-45,-52.5,-127.5,-127.5,-168.75,-55.416666666666664
1529,142.5,-60,-11.25,-48.75,-56.25,-123.75,-123.75,-168.75,-50.0
1530,108.75,-75,-15,-48.75,-52.5,-123.75,-127.5,-180,-57.083333333333336
1531,52.5,-93.75,-7.5,-37.5,-41.25,-108.75,-116.25,-172.5,-58.333333333333336
1532,26.25,-82.5,0,-33.75,-33.75,-101.25,-108.75,-165,-55.416666666666664
1533,45,-63.75,-7.5,-37.5,-33.75,-105,-112.5,-168.75,-53.75
1534,82.5,-56.25,-18.75,-45,-41.25,-112.5,-120,-176.25,-54.166666666666664
1535,78.75,-63.75,-18.75,-48.75,-45,-116.25,-123.75,-172.5,-56.666666666666664
1536,116.25,-71.25,-30,-60,-56.25,-131.25,-135,-180,-60.833333333333336
1537,161.25,-93.75,-33.75,-63.75,-67.5,-146.25,-150,-191.25,-65.0
1538,123.75,-127.5,-18.75,-52.5,-60,-138.75,-138.75,-180,-65.83333333333333
1539,86.25,-131.25,-7.5,-41.25,-45,-127.5,-127.5,-168.75,-62.5
1540,116.25,-120,-3.75,-37.5,-41.25,-120,-120,-161.25,-54.166666666666664
1541,142.5,-112.5,-3.75,-33.75,-37.5,-120,-120,-157.5,-49.166666666666664
1542,127.5,-82.5,0,-30,-33.75,-116.25,-116.25,-157.5,-45.416666666666664
1543,71.25,-67.5,3.75,-33.75,-30,-108.75,-112.5,-157.5,-48.333333333333336
1544,37.5,-52.5,3.75,-41.25,-33.75,-105,-108.75,-157.5,-50.833333333333336
1545,67.5,-18.75,-15,-48.75,-41.25,-112.5,-116.25,-165,-50.0
1546,105,-26.25,-33.75,-56.25,-45,-120,-123.75,-172.5,-52.5
1547,120,-48.75,-33.75,-56.25,-48.75,-120,-123.75,-172.5,-53.75
1548,153.75,-45,-33.75,-60,-52.5,-123.75,-127.5,-176.25,-51.666666666666664
1549,172.5,-75,-48.75,-75,-67.5,-142.5,-142.5,-187.5,-62.916666666666664
1550,135,-112.5,-48.75,-75,-63.75,-142.5,-138.75,-183.75,-70.0
1551,93.75,-108.75,-18.75,-45,-37.5,-116.25,-112.5,-161.25,-56.25
1552,78.75,-101.25,-11.25,-37.5,-30,-108.75,-105,-153.75,-52.083333333333336
1553,63.75,-116.25,-22.5,-56.25,-48.75,-123.75,-120,-165,-65.41666666666667
1554,45,-120,-37.5,-71.25,-63.75,-135,-135,-180,-77.5
1555,48.75,-75,-22.5,-60,-48.75,-116.25,-116.25,-161.25,-61.25
1556,45,-52.5,-11.25,-45,-30,-101.25,-101.25,-146.25,-49.166666666666664
1557,41.25,-67.5,-15,-41.25,-26.25,-101.25,-105,-150,-51.666666666666664
1558,75,-67.5,-11.25,-37.5,-26.25,-97.5,-105,-150,-46.666666666666664
1559,105,-41.25,-3.75,-33.75,-18.75,-93.75,-101.25,-142.5,-36.666666666666664
1560,168.75,-15,-18.75,-52.5,-41.25,-116.25,-116.25,-157.5,-38.75
1561,217.5,-41.25,-41.25,-75,-63.75,-138.75,-135,-168.75,-49.583333333333336
1562,172.5,-86.25,-37.5,-67.5,-60,-135,-127.5,-157.5,-55.416666666666664
1563,123.75,-93.75,-30,-63.75,-52.5,-127.5,-116.25,-150,-56.666666666666664
1564,123.75,-71.25,-37.5,-67.5,-56.25,-131.25,-120,-157.5,-57.5
1565,131.25,-63.75,-37.5,-71.25,-60,-131.25,-123.75,-157.5,-57.083333333333336
1566,131.25,-60,-18.75,-56.25,-45,-120,-108.75,-146.25,-47.083333333333336
1567,93.75,-37.5,3.75,-33.75,-26.25,-101.25,-93.75,-131.25,-36.25
1568,41.25,-48.75,3.75,-33.75,-22.5,-93.75,-90,-127.5,-41.25
1569,52.5,-45,-3.75,-45,-30,-97.5,-93.75,-131.25,-43.75
1570,93.75,-30,-15,-52.5,-41.25,-108.75,-108.75,-150,-45.833333333333336
1571,105,-45,-30,-63.75,-48.75,-123.75,-127.5,-165,-55.416666666666664
1572,127.5,-75,-41.25,-78.75,-63.75,-142.5,-142.5,-176.25,-65.83333333333333
1573,153.75,-123.75,-45,-82.5,-75,-150,-146.25,-176.25,-71.66666666666667
1574,131.25,-142.5,-37.5,-75,-71.25,-146.25,-138.75,-172.5,-72.5
1575,78.75,-123.75,-30,-71.25,-63.75,-138.75,-131.25,-168.75,-72.08333333333333
1576,67.5,-116.25,-30,-75,-71.25,-138.75,-131.25,-168.75,-73.75
1577,75,-116.25,-37.5,-78.75,-75,-142.5,-127.5,-165,-74.16666666666667
1578,71.25,-97.5,-33.75,-78.75,-71.25,-142.5,-127.5,-165,-71.66666666666667
1579,33.75,-63.75,-30,-75,-71.25,-138.75,-123.75,-168.75,-70.83333333333333
1580,15,-45,-30,-75,-67.5,-131.25,-123.75,-165,-69.16666666666667
1581,41.25,-52.5,-30,-75,-63.75,-131.25,-123.75,-161.25,-66.25
1582,93.75,-60,-26.25,-67.5,-60,-127.5,-120,-153.75,-57.916666666666664
1583,120,-63.75,-22.5,-63.75,-60,-127.5,-116.25,-150,-53.75
1584,146.25,-82.5,-37.5,-82.5,-78.75,-142.5,-131.25,-161.25,-63.333333333333336
1585,168.75,-127.5,-48.75,-97.5,-97.5,-157.5,-142.5,-165,-74.16666666666667
1586,123.75,-153.75,-41.25,-82.5,-82.5,-150,-127.5,-153.75,-74.16666666666667
1587,75,-146.25,-37.5,-78.75,-78.75,-146.25,-123.75,-150,-76.25
1588,86.25,-112.5,-41.25,-90,-90,-157.5,-138.75,-165,-78.75
1589,112.5,-97.5,-37.5,-90,-86.25,-153.75,-135,-165,-72.5
1590,101.25,-97.5,-30,-78.75,-78.75,-146.25,-123.75,-157.5,-67.91666666666667
1591,56.25,-90,-18.75,-71.25,-67.5,-135,-120,-153.75,-66.66666666666667
1592,22.5,-75,-15,-71.25,-71.25,-135,-123.75,-157.5,-69.58333333333333
1593,30,-52.5,-30,-90,-86.25,-150,-138.75,-168.75,-76.25
1594,48.75,-52.5,-41.25,-93.75,-90,-157.5,-146.25,-176.25,-78.75
1595,75,-60,-41.25,-97.5,-93.75,-161.25,-150,-176.25,-78.33333333333333
1596,123.75,-71.25,-48.75,-108.75,-105,-172.5,-157.5,-180,-80.0
1597,168.75,-82.5,-56.25,-112.5,-112.5,-183.75,-165,-183.75,-80.83333333333333
1598,146.25,-93.75,-45,-97.5,-101.25,-172.5,-150,-168.75,-75.83333333333333
1599,101.25,-90,-33.75,-93.75,-97.5,-161.25,-138.75,-165,-75.41666666666667
1600,86.25,-78.75,-33.75,-105,-112.5,-165,-138.75,-165,-79.16666666666667
1601,97.5,-75,-45,-120,-123.75,-176.25,-153.75,-176.25,-85.83333333333333
1602,78.75,-86.25,-45,-112.5,-112.5,-180,-157.5,-180,-88.33333333333333
1603,37.5,-86.25,-33.75,-101.25,-97.5,-168.75,-150,-172.5,-85.83333333333333
1604,11.25,-82.5,-30,-93.75,-97.5,-165,-150,-172.5,-86.66666666666667
1605,11.25,-108.75,-48.75,-108.75,-116.25,-180,-168.75,-183.75,-100.41666666666667
1606,48.75,-112.5,-56.25,-120,-127.5,-191.25,-176.25,-187.5,-102.5
1607,71.25,-82.5,-56.25,-120,-120,-187.5,-176.25,-191.25,-95.83333333333333
1608,93.75,-71.25,-67.5,-131.25,-135,-202.5,-191.25,-210,-101.66666666666667
1609,127.5,-82.5,-71.25,-138.75,-142.5,-217.5,-198.75,-213.75,-104.16666666666667
1610,142.5,-86.25,-45,-116.25,-123.75,-195,-172.5,-187.5,-87.08333333333333
1611,116.25,-93.75,-26.25,-101.25,-108.75,-180,-153.75,-172.5,-80.0
1612,67.5,-105,-41.25,-112.5,-116.25,-187.5,-161.25,-176.25,-92.5
1613,60,-97.5,-52.5,-123.75,-127.5,-191.25,-168.75,-183.75,-98.33333333333333
1614,60,-90,-41.25,-112.5,-116.25,-183.75,-157.5,-172.5,-90.41666666666667
1615,41.25,-86.25,-30,-101.25,-105,-172.5,-150,-165,-85.41666666666667
1616,30,-86.25,-26.25,-97.5,-97.5,-168.75,-146.25,-165,-84.16666666666667
1617,33.75,-97.5,-26.25,-93.75,-93.75,-161.25,-142.5,-157.5,-82.08333333333333
1618,45,-116.25,-26.25,-93.75,-93.75,-161.25,-138.75,-153.75,-82.08333333333333
1619,60,-116.25,-37.5,-108.75,-105,-172.5,-150,-168.75,-88.75
1620,105,-108.75,-52.5,-120,-123.75,-187.5,-161.25,-180,-92.08333333333333
1621,165,-120,-67.5,-135,-142.5,-210,-180,-191.25,-97.91666666666667
1622,153.75,-131.25,-56.25,-123.75,-131.25,-202.5,-172.5,-187.5,-94.58333333333333
1623,108.75,-120,-33.75,-101.25,-112.5,-183.75,-153.75,-172.5,-85.41666666666667
1624,90,-93.75,-15,-90,-101.25,-168.75,-142.5,-157.5,-75.41666666666667
1625,56.25,-86.25,-11.25,-97.5,-108.75,-172.5,-146.25,-161.25,-80.83333333333333
1626,22.5,-97.5,-22.5,-101.25,-112.5,-180,-157.5,-176.25,-91.66666666666667
1627,-7.5,-90,-26.25,-101.25,-116.25,-191.25,-168.75,-187.5,-98.75
1628,-26.25,-45,-22.5,-108.75,-123.75,-195,-176.25,-198.75,-99.58333333333333
1629,15,15,-30,-123.75,-135,-202.5,-191.25,-210,-95.83333333333333
1630,67.5,41.25,-33.75,-120,-131.25,-202.5,-187.5,-202.5,-85.41666666666667
1631,60,0,-26.25,-108.75,-120,-191.25,-176.25,-187.5,-83.33333333333333
1632,82.5,-63.75,-22.5,-105,-116.25,-187.5,-168.75,-183.75,-85.0
1633,131.25,-97.5,-18.75,-101.25,-116.25,-187.5,-165,-176.25,-81.25
1634,120,-101.25,15,-75,-90,-165,-138.75,-150,-65.0
1635,105,-67.5,33.75,-60,-75,-150,-120,-138.75,-52.5
1636,105,-41.25,26.25,-67.5,-82.5,-150,-127.5,-146.25,-53.75
1637,78.75,-60,18.75,-71.25,-90,-157.5,-135,-153.75,-63.333333333333336
1638,52.5,-97.5,22.5,-71.25,-90,-157.5,-131.25,-153.75,-69.58333333333333
1639,41.25,-97.5,37.5,-60,-78.75,-142.5,-120,-142.5,-62.5
1640,26.25,-56.25,48.75,-52.5,-71.25,-135,-116.25,-138.75,-55.0
1641,37.5,-15,52.5,-45,-60,-127.5,-112.5,-135,-45.0
1642,67.5,11.25,52.5,-45,-60,-127.5,-116.25,-135,-39.166666666666664
1643,67.5,15,41.25,-52.5,-71.25,-142.5,-123.75,-146.25,-45.833333333333336
1644,90,-7.5,26.25,-67.5,-82.5,-157.5,-138.75,-157.5,-55.0
1645,131.25,-41.25,3.75,-82.5,-101.25,-176.25,-153.75,-165,-65.0
1646,131.25,-33.75,15,-71.25,-86.25,-157.5,-131.25,-138.75,-52.5
1647,108.75,-22.5,30,-60,-78.75,-142.5,-112.5,-120,-44.166666666666664
1648,101.25,-26.25,15,-60,-75,-142.5,-116.25,-123.75,-47.5
1649,131.25,-11.25,-11.25,-71.25,-78.75,-142.5,-116.25,-123.75,-47.083333333333336
1650,108.75,3.75,-33.75,-78.75,-82.5,-146.25,-120,-131.25,-53.333333333333336
1651,60,33.75,-45,-82.5,-86.25,-150,-127.5,-138.75,-59.583333333333336
1652,52.5,60,-48.75,-86.25,-86.25,-146.25,-131.25,-142.5,-58.75
1653,48.75,60,-60,-97.5,-97.5,-157.5,-142.5,-153.75,-66.66666666666667
1654,75,37.5,-75,-105,-105,-165,-146.25,-157.5,-71.25
1655,86.25,-18.75,-71.25,-101.25,-105,-165,-142.5,-150,-74.16666666666667
1656,135,-41.25,-67.5,-97.5,-101.25,-165,-142.5,-146.25,-69.58333333333333
1657,210,-48.75,-75,-108.75,-108.75,-172.5,-146.25,-150,-66.66666666666667
1658,191.25,-71.25,-75,-105,-108.75,-172.5,-142.5,-142.5,-69.58333333333333
1659,131.25,-78.75,-63.75,-108.75,-112.5,-176.25,-142.5,-142.5,-77.08333333333333
1660,108.75,-78.75,-63.75,-120,-131.25,-180,-150,-153.75,-85.41666666666667
1661,101.25,-93.75,-71.25,-127.5,-135,-187.5,-157.5,-165,-92.91666666666667
1662,86.25,-93.75,-60,-116.25,-120,-180,-150,-153.75,-87.5
1663,45,-86.25,-37.5,-93.75,-105,-165,-135,-146.25,-80.41666666666667
1664,22.5,-52.5,-30,-86.25,-93.75,-153.75,-131.25,-138.75,-73.75
1665,41.25,-15,-45,-97.5,-105,-161.25,-142.5,-150,-75.0
1666,56.25,-30,-67.5,-123.75,-131.25,-191.25,-172.5,-180,-93.33333333333333
1667,48.75,-37.5,-71.25,-131.25,-138.75,-202.5,-180,-191.25,-100.41666666666667
1668,86.25,-15,-71.25,-135,-142.5,-206.25,-180,-183.75,-94.16666666666667
1669,135,-26.25,-86.25,-150,-157.5,-221.25,-195,-191.25,-99.16666666666667
1670,105,-67.5,-75,-142.5,-153.75,-221.25,-191.25,-191.25,-104.16666666666667
1671,56.25,-101.25,-48.75,-123.75,-138.75,-202.5,-172.5,-180,-101.25
1672,56.25,-135,-48.75,-120,-138.75,-202.5,-172.5,-180,-104.58333333333333
1673,67.5,-146.25,-56.25,-127.5,-146.25,-210,-183.75,-183.75,-109.58333333333333
1674,41.25,-142.5,-52.5,-131.25,-150,-213.75,-183.75,-187.5,-113.33333333333333
1675,3.75,-127.5,-41.25,-120,-142.5,-210,-183.75,-187.5,-112.08333333333333
1676,-15,-120,-33.75,-116.25,-138.75,-206.25,-183.75,-187.5,-111.25
1677,-15,-138.75,-45,-123.75,-146.25,-213.75,-198.75,-202.5,-120.41666666666667
1678,3.75,-146.25,-56.25,-135,-157.5,-228.75,-210,-210,-126.66666666666667
1679,30,-120,-63.75,-138.75,-161.25,-232.5,-213.75,-210,-123.33333333333333
1680,78.75,-101.25,-86.25,-157.5,-180,-247.5,-228.75,-225,-127.5
1681,127.5,-127.5,-112.5,-183.75,-206.25,-270,-247.5,-243.75,-140.41666666666666
1682,90,-161.25,-101.25,-172.5,-195,-266.25,-240,-236.25,-142.5
1683,48.75,-142.5,-78.75,-157.5,-180,-243.75,-217.5,-217.5,-132.08333333333334
1684,48.75,-127.5,-78.75,-157.5,-176.25,-236.25,-206.25,-210,-127.08333333333333
1685,45,-142.5,-75,-150,-168.75,-228.75,-202.5,-210,-125.83333333333333
1686,22.5,-150,-60,-135,-157.5,-217.5,-198.75,-206.25,-122.5
1687,-3.75,-138.75,-45,-127.5,-146.25,-206.25,-187.5,-198.75,-117.08333333333333
1688,-11.25,-123.75,-41.25,-116.25,-135,-191.25,-172.5,-187.5,-108.75
1689,15,-116.25,-33.75,-112.5,-127.5,-183.75,-165,-172.5,-99.58333333333333
1690,26.25,-127.5,-45,-120,-135,-191.25,-172.5,-176.25,-104.58333333333333
1691,33.75,-131.25,-52.5,-123.75,-138.75,-195,-176.25,-180,-107.08333333333333
1692,82.5,-135,-60,-127.5,-142.5,-202.5,-183.75,-183.75,-105.83333333333333
1693,108.75,-168.75,-71.25,-135,-157.5,-217.5,-195,-195,-114.58333333333333
1694,78.75,-180,-71.25,-142.5,-165,-221.25,-198.75,-198.75,-122.08333333333333
1695,37.5,-165,-67.5,-138.75,-161.25,-217.5,-195,-198.75,-122.91666666666667
1696,3.75,-176.25,-71.25,-142.5,-168.75,-228.75,-210,-210,-133.75
1697,15,-165,-67.5,-142.5,-172.5,-236.25,-217.5,-221.25,-134.16666666666666
1698,37.5,-146.25,-56.25,-127.5,-165,-236.25,-217.5,-221.25,-125.83333333333333
1699,26.25,-138.75,-30,-97.5,-150,-228.75,-217.5,-225,-117.91666666666667
1700,11.25,-116.25,18.75,-48.75,-131.25,-225,-225,-236.25,-105.83333333333333
1701,41.25,-101.25,75,15,-116.25,-240,-251.25,-262.5,-93.33333333333333
1702,75,-135,135,90,-97.5,-258.75,-285,-300,-86.25
1703,86.25,-183.75,206.25,157.5,-78.75,-277.5,-315,-330,-81.66666666666667
1704,138.75,-187.5,262.5,213.75,-63.75,-285,-326.25,-345,-65.83333333333333
1705,206.25,-168.75,300,281.25,-26.25,-273.75,-322.5,-337.5,-37.916666666666664
