samplenr	I	II	V1	V2	V3	V4	V5	V6	measurement
0	52.5	-93.75	93.75	157.5	41.25	-3.75	-45	15
1	56.25	-90	86.25	150	33.75	-7.5	-48.75	7.5
2	67.5	-67.5	93.75	157.5	45	0	-45	11.25
3	75	-52.5	101.25	168.75	56.25	11.25	-33.75	22.5
4	67.5	-63.75	105	176.25	60	15	-30	22.5
5	63.75	-71.25	108.75	180	63.75	11.25	-30	22.5
6	86.25	-63.75	112.5	191.25	71.25	22.5	-22.5	33.75
7	93.75	-71.25	112.5	198.75	78.75	30	-11.25	45
8	90	-82.5	116.25	198.75	78.75	30	-7.5	48.75
9	90	-82.5	116.25	195	78.75	33.75	-11.25	48.75
10	97.5	-78.75	112.5	198.75	78.75	37.5	-7.5	48.75
11	90	-82.5	108.75	202.5	78.75	37.5	-7.5	48.75
12	82.5	-86.25	105	191.25	75	33.75	-15	45
13	82.5	-78.75	101.25	187.5	75	30	-18.75	33.75
14	78.75	-67.5	97.5	191.25	71.25	26.25	-22.5	30
15	82.5	-56.25	105	195	71.25	30	-15	37.5
16	90	-48.75	108.75	206.25	86.25	37.5	-11.25	41.25
17	108.75	-37.5	105	213.75	93.75	45	-3.75	48.75
18	131.25	-30	112.5	217.5	97.5	56.25	7.5	63.75
19	138.75	-37.5	116.25	225	101.25	60	15	71.25
20	120	-48.75	112.5	225	105	60	18.75	71.25
21	116.25	-48.75	105	221.25	101.25	60	15	67.5
22	120	-45	108.75	225	105	63.75	18.75	71.25
23	116.25	-45	108.75	225	105	63.75	18.75	71.25
24	112.5	-41.25	105	221.25	101.25	63.75	15	71.25
25	123.75	-26.25	105	217.5	101.25	63.75	15	71.25
26	131.25	-22.5	101.25	217.5	97.5	56.25	7.5	63.75
27	123.75	-30	101.25	213.75	93.75	52.5	3.75	60
28	116.25	-33.75	105	217.5	97.5	56.25	11.25	67.5
29	131.25	-26.25	105	225	105	63.75	15	71.25
30	146.25	-30	105	232.5	112.5	71.25	22.5	82.5
31	153.75	-37.5	105	236.25	116.25	78.75	30	90
32	157.5	-26.25	105	236.25	120	82.5	37.5	101.25
33	161.25	-11.25	108.75	232.5	116.25	82.5	41.25	105
34	168.75	-7.5	108.75	228.75	108.75	82.5	41.25	101.25
35	168.75	-11.25	105	225	105	78.75	37.5	101.25
36	168.75	-11.25	101.25	217.5	97.5	75	33.75	97.5
37	165	-7.5	97.5	217.5	97.5	71.25	30	90
38	165	3.75	97.5	217.5	97.5	67.5	26.25	86.25
39	165	7.5	93.75	206.25	90	60	26.25	82.5
40	172.5	11.25	90	210	93.75	67.5	30	86.25
41	183.75	18.75	93.75	213.75	93.75	67.5	30	90
42	187.5	26.25	105	221.25	97.5	67.5	33.75	97.5
43	183.75	22.5	108.75	225	101.25	75	41.25	108.75
44	183.75	11.25	105	221.25	97.5	71.25	37.5	105
45	180	0	101.25	213.75	90	63.75	30	97.5
46	172.5	3.75	108.75	217.5	97.5	67.5	37.5	101.25
47	168.75	3.75	105	210	90	60	33.75	101.25
48	157.5	-7.5	105	202.5	75	52.5	22.5	93.75
49	153.75	-7.5	101.25	195	67.5	45	15	82.5
50	157.5	3.75	101.25	195	67.5	45	15	78.75
51	172.5	26.25	105	195	67.5	45	15	78.75
52	176.25	30	108.75	195	63.75	41.25	11.25	75
53	172.5	18.75	112.5	198.75	63.75	37.5	11.25	78.75
54	165	11.25	120	202.5	63.75	41.25	18.75	82.5
55	176.25	11.25	127.5	210	67.5	45	22.5	90
56	172.5	3.75	127.5	210	75	45	22.5	93.75
57	168.75	0	123.75	202.5	60	33.75	15	86.25
58	168.75	-3.75	127.5	198.75	60	33.75	15	86.25
59	168.75	-3.75	131.25	198.75	60	33.75	15	86.25
60	157.5	-3.75	131.25	195	56.25	30	7.5	78.75
61	150	3.75	131.25	187.5	48.75	22.5	0	67.5
62	135	3.75	131.25	183.75	41.25	11.25	-11.25	52.5
63	120	-3.75	135	180	33.75	3.75	-22.5	41.25
64	116.25	-15	135	180	30	-3.75	-26.25	37.5
65	108.75	-26.25	138.75	180	30	-3.75	-26.25	37.5
66	112.5	-22.5	142.5	180	30	-7.5	-26.25	37.5
67	127.5	-22.5	153.75	191.25	33.75	0	-22.5	48.75
68	123.75	-37.5	153.75	195	41.25	3.75	-22.5	48.75
69	116.25	-48.75	150	187.5	33.75	-7.5	-30	37.5
70	101.25	-60	146.25	176.25	22.5	-15	-37.5	33.75
71	86.25	-63.75	146.25	172.5	18.75	-22.5	-45	22.5
72	63.75	-71.25	150	172.5	15	-26.25	-52.5	15
73	63.75	-67.5	153.75	165	11.25	-26.25	-56.25	11.25
74	78.75	-52.5	153.75	157.5	7.5	-33.75	-60	3.75
75	71.25	-48.75	157.5	157.5	3.75	-37.5	-63.75	0
76	63.75	-56.25	153.75	157.5	3.75	-37.5	-67.5	-7.5
77	63.75	-63.75	150	157.5	3.75	-41.25	-71.25	-11.25
78	67.5	-71.25	157.5	165	7.5	-37.5	-63.75	-3.75
79	67.5	-82.5	161.25	168.75	11.25	-30	-60	3.75
80	60	-90	153.75	157.5	3.75	-41.25	-67.5	-7.5
81	48.75	-86.25	153.75	150	0	-45	-71.25	-7.5
82	45	-97.5	150	142.5	-7.5	-48.75	-78.75	-15
83	37.5	-112.5	146.25	135	-11.25	-56.25	-86.25	-22.5
84	22.5	-127.5	142.5	127.5	-18.75	-60	-90	-30
85	7.5	-146.25	138.75	116.25	-30	-71.25	-105	-41.25
86	0	-135	138.75	108.75	-37.5	-78.75	-112.5	-52.5
87	-3.75	-123.75	142.5	112.5	-30	-75	-108.75	-48.75
88	-11.25	-123.75	142.5	108.75	-33.75	-82.5	-112.5	-52.5
89	-11.25	-120	142.5	101.25	-41.25	-82.5	-116.25	-56.25
90	7.5	-112.5	146.25	108.75	-30	-75	-105	-45
91	18.75	-120	142.5	112.5	-26.25	-71.25	-101.25	-41.25
92	3.75	-142.5	138.75	105	-33.75	-78.75	-108.75	-45
93	-3.75	-150	123.75	93.75	-41.25	-86.25	-116.25	-52.5
94	3.75	-142.5	123.75	90	-41.25	-82.5	-112.5	-48.75
95	7.5	-146.25	123.75	86.25	-45	-86.25	-112.5	-52.5
96	-7.5	-153.75	120	78.75	-52.5	-93.75	-120	-60
97	-26.25	-150	112.5	71.25	-56.25	-97.5	-127.5	-67.5
98	-30	-138.75	112.5	60	-67.5	-105	-135	-75
99	-26.25	-131.25	116.25	56.25	-75	-108.75	-138.75	-78.75
100	-22.5	-135	120	67.5	-63.75	-105	-135	-75
101	-30	-142.5	120	67.5	-60	-108.75	-135	-78.75
102	-26.25	-150	120	67.5	-67.5	-112.5	-135	-75
103	-26.25	-168.75	123.75	71.25	-60	-105	-127.5	-67.5
104	-41.25	-180	116.25	67.5	-67.5	-108.75	-131.25	-71.25
105	-37.5	-176.25	120	60	-75	-112.5	-135	-71.25
106	-30	-176.25	123.75	63.75	-67.5	-105	-131.25	-63.75
107	-41.25	-183.75	116.25	63.75	-63.75	-101.25	-127.5	-63.75
108	-48.75	-187.5	112.5	56.25	-71.25	-105	-131.25	-71.25
109	-45	-183.75	105	48.75	-78.75	-116.25	-142.5	-78.75
110	-45	-168.75	101.25	41.25	-86.25	-120	-150	-90
111	-37.5	-150	108.75	45	-78.75	-116.25	-146.25	-86.25
112	-33.75	-153.75	116.25	48.75	-78.75	-116.25	-146.25	-86.25
113	-41.25	-165	116.25	52.5	-78.75	-116.25	-146.25	-86.25
114	-33.75	-161.25	116.25	60	-71.25	-108.75	-135	-78.75
115	-15	-153.75	116.25	67.5	-63.75	-105	-127.5	-67.5
116	-18.75	-157.5	116.25	67.5	-60	-101.25	-123.75	-67.5
117	-22.5	-157.5	112.5	63.75	-60	-101.25	-127.5	-67.5
118	-30	-161.25	112.5	56.25	-67.5	-108.75	-135	-71.25
119	-33.75	-168.75	112.5	52.5	-75	-108.75	-135	-75
120	-33.75	-176.25	112.5	60	-67.5	-105	-131.25	-75
121	-48.75	-187.5	108.75	52.5	-71.25	-112.5	-138.75	-82.5
122	-52.5	-183.75	108.75	52.5	-75	-112.5	-138.75	-82.5
123	-41.25	-165	112.5	60	-63.75	-105	-135	-82.5
124	-33.75	-146.25	112.5	60	-60	-105	-131.25	-82.5
125	-30	-138.75	116.25	71.25	-56.25	-101.25	-127.5	-78.75
126	-22.5	-142.5	120	75	-52.5	-93.75	-120	-67.5
127	-18.75	-153.75	116.25	75	-48.75	-90	-116.25	-60
128	-26.25	-168.75	112.5	71.25	-48.75	-90	-116.25	-63.75
129	-30	-172.5	108.75	63.75	-63.75	-97.5	-123.75	-71.25
130	-22.5	-165	108.75	67.5	-60	-97.5	-123.75	-67.5
131	-11.25	-150	108.75	75	-45	-90	-116.25	-60
132	-11.25	-150	105	75	-48.75	-93.75	-120	-63.75
133	-15	-146.25	105	67.5	-56.25	-101.25	-131.25	-75
134	-30	-142.5	101.25	60	-60	-108.75	-138.75	-82.5
135	-30	-135	105	63.75	-60	-105	-138.75	-82.5
136	-33.75	-131.25	105	67.5	-56.25	-101.25	-131.25	-78.75
137	-33.75	-131.25	112.5	71.25	-48.75	-93.75	-123.75	-71.25
138	-30	-142.5	120	82.5	-41.25	-86.25	-112.5	-60
139	-26.25	-146.25	123.75	90	-33.75	-78.75	-105	-52.5
140	-22.5	-150	116.25	86.25	-37.5	-78.75	-105	-52.5
141	-15	-150	116.25	86.25	-33.75	-75	-101.25	-48.75
142	-7.5	-138.75	120	90	-30	-71.25	-97.5	-45
143	-7.5	-142.5	120	86.25	-30	-71.25	-97.5	-45
144	-22.5	-161.25	112.5	78.75	-41.25	-82.5	-108.75	-56.25
145	-37.5	-168.75	101.25	63.75	-48.75	-90	-120	-71.25
146	-45	-168.75	97.5	60	-56.25	-93.75	-123.75	-75
147	-30	-150	105	63.75	-52.5	-90	-120	-71.25
148	-26.25	-135	116.25	75	-41.25	-82.5	-112.5	-63.75
149	-26.25	-131.25	116.25	71.25	-41.25	-82.5	-108.75	-63.75
150	-15	-127.5	112.5	78.75	-37.5	-75	-101.25	-56.25
151	-7.5	-127.5	112.5	82.5	-37.5	-75	-101.25	-52.5
152	-11.25	-138.75	108.75	75	-41.25	-78.75	-105	-52.5
153	-11.25	-146.25	97.5	67.5	-45	-78.75	-105	-52.5
154	-3.75	-138.75	105	75	-33.75	-67.5	-93.75	-45
155	-7.5	-138.75	101.25	75	-33.75	-71.25	-97.5	-48.75
156	-18.75	-142.5	97.5	71.25	-37.5	-75	-101.25	-48.75
157	-26.25	-146.25	93.75	60	-52.5	-82.5	-108.75	-60
158	-26.25	-142.5	93.75	56.25	-52.5	-86.25	-108.75	-63.75
159	-22.5	-135	97.5	63.75	-45	-78.75	-105	-60
160	-18.75	-123.75	105	67.5	-41.25	-75	-101.25	-52.5
161	-15	-112.5	105	71.25	-33.75	-71.25	-93.75	-48.75
162	-3.75	-108.75	108.75	78.75	-26.25	-63.75	-86.25	-41.25
163	0	-127.5	105	75	-30	-67.5	-86.25	-37.5
164	-15	-150	93.75	63.75	-45	-78.75	-97.5	-45
165	-11.25	-150	90	60	-48.75	-75	-97.5	-45
166	-3.75	-146.25	90	56.25	-48.75	-75	-97.5	-45
167	0	-146.25	90	52.5	-52.5	-78.75	-101.25	-45
168	-7.5	-150	86.25	52.5	-48.75	-78.75	-101.25	-48.75
169	-22.5	-150	90	45	-60	-86.25	-108.75	-56.25
170	-26.25	-142.5	78.75	41.25	-63.75	-93.75	-116.25	-67.5
171	-22.5	-127.5	82.5	45	-56.25	-86.25	-112.5	-63.75
172	-15	-116.25	86.25	48.75	-52.5	-82.5	-108.75	-56.25
173	-11.25	-116.25	93.75	56.25	-45	-78.75	-101.25	-52.5
174	-11.25	-123.75	93.75	63.75	-45	-75	-97.5	-48.75
175	-3.75	-123.75	97.5	67.5	-37.5	-67.5	-90	-37.5
176	-3.75	-131.25	90	60	-41.25	-71.25	-93.75	-37.5
177	-7.5	-138.75	86.25	56.25	-48.75	-75	-97.5	-41.25
178	-15	-138.75	82.5	52.5	-48.75	-75	-97.5	-41.25
179	-11.25	-135	75	41.25	-63.75	-82.5	-101.25	-45
180	-30	-157.5	75	33.75	-71.25	-90	-108.75	-52.5
181	-41.25	-168.75	67.5	30	-67.5	-93.75	-116.25	-60
182	-33.75	-150	75	33.75	-63.75	-86.25	-112.5	-60
183	-22.5	-131.25	75	30	-67.5	-90	-112.5	-63.75
184	-26.25	-127.5	71.25	30	-67.5	-93.75	-116.25	-67.5
185	-33.75	-135	75	30	-67.5	-93.75	-116.25	-63.75
186	-18.75	-131.25	82.5	41.25	-56.25	-78.75	-101.25	-48.75
187	-7.5	-138.75	82.5	45	-56.25	-78.75	-97.5	-45
188	-15	-150	78.75	41.25	-60	-86.25	-101.25	-45
189	-7.5	-138.75	71.25	37.5	-60	-86.25	-101.25	-45
190	-3.75	-138.75	71.25	33.75	-60	-82.5	-105	-45
191	-18.75	-153.75	67.5	26.25	-71.25	-93.75	-112.5	-52.5
192	-22.5	-153.75	63.75	22.5	-75	-101.25	-120	-56.25
193	-15	-150	63.75	15	-78.75	-101.25	-120	-63.75
194	-26.25	-153.75	60	7.5	-86.25	-108.75	-123.75	-71.25
195	-37.5	-150	67.5	7.5	-90	-108.75	-123.75	-71.25
196	-37.5	-150	67.5	15	-78.75	-101.25	-120	-67.5
197	-26.25	-146.25	63.75	18.75	-75	-97.5	-116.25	-63.75
198	-7.5	-135	63.75	18.75	-75	-97.5	-112.5	-60
199	-7.5	-135	71.25	30	-67.5	-90	-101.25	-48.75
200	-22.5	-150	75	30	-67.5	-90	-101.25	-48.75
201	-26.25	-157.5	67.5	18.75	-75	-93.75	-108.75	-52.5
202	-15	-150	67.5	18.75	-75	-93.75	-105	-48.75
203	-15	-142.5	67.5	22.5	-71.25	-90	-105	-48.75
204	-30	-142.5	71.25	18.75	-78.75	-93.75	-108.75	-52.5
205	-41.25	-142.5	71.25	15	-78.75	-97.5	-112.5	-56.25
206	-37.5	-127.5	78.75	22.5	-67.5	-90	-108.75	-56.25
207	-26.25	-108.75	82.5	18.75	-71.25	-90	-108.75	-56.25
208	-18.75	-97.5	90	30	-63.75	-82.5	-101.25	-52.5
209	-18.75	-93.75	97.5	41.25	-56.25	-78.75	-97.5	-48.75
210	-15	-93.75	101.25	48.75	-48.75	-75	-90	-41.25
211	-7.5	-93.75	101.25	45	-56.25	-75	-86.25	-33.75
212	-11.25	-101.25	101.25	41.25	-60	-75	-86.25	-33.75
213	-15	-97.5	108.75	48.75	-48.75	-67.5	-86.25	-33.75
214	-7.5	-90	120	60	-41.25	-63.75	-82.5	-30
215	0	-86.25	120	60	-37.5	-60	-78.75	-30
216	-3.75	-90	120	60	-41.25	-60	-78.75	-30
217	-11.25	-90	120	60	-41.25	-60	-78.75	-33.75
218	-18.75	-86.25	127.5	63.75	-33.75	-56.25	-78.75	-33.75
219	-22.5	-78.75	131.25	63.75	-41.25	-60	-86.25	-37.5
220	-26.25	-67.5	138.75	67.5	-37.5	-56.25	-78.75	-30
221	-18.75	-45	142.5	75	-30	-48.75	-71.25	-22.5
222	-3.75	-41.25	142.5	78.75	-26.25	-45	-63.75	-18.75
223	3.75	-45	146.25	86.25	-18.75	-37.5	-56.25	-7.5
224	0	-48.75	131.25	82.5	-18.75	-37.5	-56.25	-3.75
225	-3.75	-56.25	116.25	67.5	-26.25	-48.75	-60	-7.5
226	11.25	-45	108.75	63.75	-30	-45	-60	-7.5
227	18.75	-41.25	101.25	63.75	-30	-41.25	-60	-3.75
228	3.75	-56.25	82.5	52.5	-37.5	-48.75	-63.75	-7.5
229	0	-60	67.5	41.25	-45	-56.25	-71.25	-15
230	15	-45	56.25	37.5	-48.75	-56.25	-71.25	-18.75
231	30	-30	63.75	41.25	-45	-56.25	-71.25	-15
232	30	-30	67.5	45	-45	-56.25	-67.5	-15
233	30	-33.75	63.75	41.25	-45	-56.25	-67.5	-15
234	33.75	-41.25	52.5	37.5	-45	-60	-71.25	-15
235	45	-60	52.5	37.5	-45	-56.25	-67.5	-7.5
236	45	-82.5	45	33.75	-48.75	-56.25	-67.5	-3.75
237	41.25	-90	37.5	18.75	-56.25	-63.75	-71.25	-11.25
238	45	-90	33.75	11.25	-63.75	-71.25	-78.75	-18.75
239	45	-93.75	45	22.5	-60	-63.75	-71.25	-11.25
240	26.25	-108.75	45	15	-67.5	-67.5	-78.75	-18.75
241	15	-112.5	41.25	3.75	-75	-78.75	-86.25	-33.75
242	22.5	-108.75	45	3.75	-71.25	-78.75	-90	-41.25
243	18.75	-112.5	45	7.5	-71.25	-82.5	-93.75	-45
244	0	-112.5	48.75	7.5	-75	-82.5	-93.75	-45
245	-11.25	-112.5	52.5	7.5	-75	-82.5	-93.75	-45
246	-3.75	-101.25	63.75	18.75	-67.5	-78.75	-86.25	-33.75
247	7.5	-101.25	67.5	30	-56.25	-71.25	-78.75	-26.25
248	0	-120	56.25	18.75	-63.75	-75	-82.5	-33.75
249	-3.75	-127.5	48.75	0	-82.5	-90	-93.75	-41.25
250	-3.75	-131.25	48.75	-11.25	-97.5	-97.5	-101.25	-48.75
251	-3.75	-131.25	45	-3.75	-82.5	-93.75	-101.25	-48.75
252	-15	-142.5	33.75	-11.25	-90	-101.25	-112.5	-60
253	-22.5	-142.5	33.75	-22.5	-105	-112.5	-123.75	-67.5
254	-37.5	-153.75	33.75	-30	-116.25	-123.75	-138.75	-82.5
255	-41.25	-161.25	33.75	-33.75	-120	-131.25	-142.5	-90
256	-37.5	-153.75	33.75	-33.75	-120	-127.5	-138.75	-86.25
257	-37.5	-150	33.75	-33.75	-120	-123.75	-135	-82.5
258	-30	-146.25	37.5	-22.5	-108.75	-120	-127.5	-75
259	-15	-146.25	48.75	-3.75	-93.75	-108.75	-112.5	-60
260	-26.25	-172.5	41.25	-15	-105	-112.5	-120	-63.75
261	-33.75	-180	33.75	-22.5	-108.75	-116.25	-127.5	-71.25
262	-26.25	-165	33.75	-22.5	-105	-116.25	-123.75	-67.5
263	-26.25	-161.25	33.75	-18.75	-105	-112.5	-120	-63.75
264	-33.75	-172.5	33.75	-22.5	-105	-112.5	-120	-67.5
265	-37.5	-172.5	30	-30	-116.25	-123.75	-131.25	-78.75
266	-48.75	-165	30	-37.5	-116.25	-127.5	-135	-82.5
267	-52.5	-161.25	30	-37.5	-116.25	-127.5	-135	-86.25
268	-48.75	-153.75	30	-33.75	-116.25	-127.5	-135	-86.25
269	-45	-157.5	26.25	-33.75	-120	-127.5	-138.75	-90
270	-37.5	-161.25	30	-30	-112.5	-123.75	-131.25	-82.5
271	-11.25	-146.25	33.75	-15	-101.25	-108.75	-120	-67.5
272	-7.5	-150	33.75	-15	-101.25	-112.5	-120	-67.5
273	-26.25	-168.75	33.75	-22.5	-108.75	-120	-127.5	-71.25
274	-33.75	-172.5	37.5	-18.75	-101.25	-112.5	-120	-67.5
275	-30	-168.75	37.5	-15	-101.25	-108.75	-120	-67.5
276	-30	-165	41.25	-15	-97.5	-112.5	-123.75	-71.25
277	-37.5	-176.25	41.25	-18.75	-108.75	-123.75	-135	-90
278	-41.25	-187.5	56.25	-7.5	-116.25	-135	-150	-105
279	-41.25	-198.75	93.75	26.25	-105	-142.5	-165	-123.75
280	-48.75	-221.25	153.75	82.5	-90	-153.75	-183.75	-150
281	-48.75	-255	210	131.25	-86.25	-176.25	-213.75	-180
282	-22.5	-262.5	266.25	176.25	-82.5	-187.5	-232.5	-195
283	7.5	-247.5	315	228.75	-63.75	-183.75	-228.75	-191.25
284	11.25	-236.25	356.25	296.25	-26.25	-161.25	-213.75	-180
285	26.25	-198.75	405	382.5	37.5	-108.75	-168.75	-138.75
286	63.75	-142.5	442.5	457.5	105	-56.25	-120	-97.5
287	108.75	-86.25	468.75	525	176.25	7.5	-60	-45
288	157.5	-18.75	483.75	577.5	236.25	71.25	3.75	15
289	210	63.75	495	626.25	300	146.25	75	82.5
290	277.5	153.75	498.75	686.25	382.5	236.25	165	161.25
291	341.25	266.25	483.75	746.25	491.25	360	288.75	273.75
292	393.75	393.75	446.25	780	592.5	487.5	420	401.25
293	450	528.75	375	787.5	693.75	626.25	566.25	543.75
294	521.25	697.5	303.75	802.5	821.25	791.25	738.75	705
295	577.5	888.75	281.25	840	960	975	922.5	881.25
296	592.5	1087.5	210	795	1050	1136.25	1106.25	1065
297	611.25	1327.5	56.25	671.25	1113.75	1297.5	1308.75	1282.5
298	656.25	1515	-90	536.25	1166.25	1451.25	1492.5	1470
299	697.5	1575	-255	360	1177.5	1548.75	1608.75	1578.75
300	686.25	1608.75	-405	206.25	1200	1642.5	1706.25	1668.75
301	603.75	1605	-446.25	172.5	1267.5	1732.5	1777.5	1702.5
302	513.75	1548.75	-420	187.5	1342.5	1792.5	1796.25	1680
303	442.5	1488.75	-435	146.25	1376.25	1815	1785	1642.5
304	363.75	1398.75	-506.25	26.25	1308.75	1740	1695	1548.75
305	270	1222.5	-555	-116.25	1132.5	1526.25	1485	1361.25
306	138.75	978.75	-525	-221.25	900	1226.25	1196.25	1106.25
307	18.75	757.5	-487.5	-348.75	600	888.75	896.25	862.5
308	-63.75	555	-521.25	-555	228.75	510	581.25	626.25
309	-131.25	378.75	-562.5	-738.75	-97.5	191.25	311.25	416.25
310	-180	243.75	-551.25	-795	-262.5	0	127.5	255
311	-195	127.5	-495	-727.5	-277.5	-75	18.75	131.25
312	-198.75	22.5	-465	-645	-251.25	-105	-52.5	37.5
313	-183.75	-15	-438.75	-555	-206.25	-93.75	-67.5	3.75
314	-157.5	-3.75	-393.75	-465	-153.75	-56.25	-41.25	15
315	-138.75	-7.5	-352.5	-401.25	-135	-45	-33.75	15
316	-127.5	-26.25	-307.5	-352.5	-138.75	-56.25	-37.5	7.5
317	-108.75	-37.5	-251.25	-281.25	-116.25	-45	-30	15
318	-75	-18.75	-195	-191.25	-67.5	-15	-7.5	33.75
319	-33.75	15	-142.5	-112.5	-18.75	18.75	22.5	60
320	-7.5	18.75	-101.25	-48.75	18.75	37.5	33.75	71.25
321	-7.5	0	-67.5	0	41.25	45	30	63.75
322	0	-11.25	-26.25	37.5	60	52.5	37.5	63.75
323	15	-11.25	3.75	67.5	75	60	37.5	63.75
324	7.5	-18.75	26.25	71.25	63.75	45	26.25	52.5
325	-11.25	-45	33.75	71.25	48.75	26.25	3.75	30
326	-15	-60	41.25	78.75	48.75	18.75	-7.5	15
327	-3.75	-48.75	48.75	82.5	48.75	11.25	-15	7.5
328	0	-41.25	56.25	86.25	45	7.5	-18.75	7.5
329	0	-56.25	56.25	86.25	33.75	-3.75	-30	-3.75
330	-3.75	-82.5	63.75	86.25	30	-11.25	-33.75	-11.25
331	7.5	-90	67.5	93.75	33.75	-11.25	-30	-7.5
332	15	-93.75	67.5	97.5	30	-11.25	-30	-3.75
333	11.25	-97.5	67.5	97.5	26.25	-11.25	-37.5	-3.75
334	11.25	-93.75	67.5	97.5	22.5	-18.75	-41.25	-7.5
335	7.5	-97.5	67.5	97.5	18.75	-22.5	-45	-11.25
336	0	-101.25	71.25	97.5	15	-26.25	-48.75	-15
337	-3.75	-97.5	71.25	93.75	7.5	-33.75	-56.25	-22.5
338	11.25	-82.5	75	93.75	7.5	-30	-52.5	-22.5
339	11.25	-82.5	75	97.5	11.25	-33.75	-56.25	-26.25
340	3.75	-86.25	75	97.5	7.5	-33.75	-56.25	-26.25
341	11.25	-82.5	78.75	105	11.25	-30	-52.5	-22.5
342	22.5	-82.5	82.5	112.5	18.75	-22.5	-48.75	-15
343	30	-82.5	86.25	116.25	22.5	-22.5	-45	-7.5
344	33.75	-90	78.75	112.5	15	-26.25	-48.75	-11.25
345	33.75	-105	75	101.25	3.75	-33.75	-52.5	-15
346	33.75	-108.75	71.25	101.25	3.75	-30	-52.5	-15
347	26.25	-101.25	78.75	112.5	18.75	-22.5	-45	-11.25
348	22.5	-97.5	82.5	112.5	18.75	-22.5	-45	-11.25
349	22.5	-93.75	75	108.75	11.25	-30	-52.5	-18.75
350	22.5	-90	71.25	105	3.75	-33.75	-56.25	-26.25
351	15	-93.75	75	108.75	11.25	-30	-52.5	-22.5
352	18.75	-90	86.25	116.25	18.75	-26.25	-45	-18.75
353	33.75	-82.5	86.25	120	22.5	-22.5	-41.25	-11.25
354	41.25	-75	86.25	127.5	30	-11.25	-33.75	-3.75
355	45	-78.75	93.75	142.5	37.5	0	-22.5	7.5
356	52.5	-82.5	90	146.25	45	3.75	-18.75	15
357	60	-82.5	75	131.25	30	-7.5	-26.25	3.75
358	60	-86.25	78.75	135	33.75	-7.5	-26.25	3.75
359	56.25	-86.25	82.5	142.5	45	0	-18.75	11.25
360	48.75	-82.5	86.25	142.5	45	3.75	-15	18.75
361	33.75	-86.25	86.25	138.75	37.5	3.75	-18.75	11.25
362	26.25	-90	78.75	135	33.75	0	-30	0
363	37.5	-75	82.5	138.75	37.5	-3.75	-30	0
364	60	-52.5	86.25	146.25	41.25	3.75	-18.75	7.5
365	56.25	-48.75	90	153.75	52.5	11.25	-11.25	15
366	56.25	-48.75	93.75	161.25	60	18.75	-7.5	18.75
367	63.75	-56.25	90	168.75	63.75	26.25	0	26.25
368	60	-78.75	86.25	168.75	63.75	26.25	0	26.25
369	63.75	-86.25	78.75	157.5	48.75	18.75	-7.5	22.5
370	67.5	-71.25	86.25	161.25	52.5	26.25	0	30
371	78.75	-56.25	86.25	172.5	67.5	33.75	7.5	33.75
372	71.25	-75	86.25	172.5	71.25	33.75	3.75	30
373	60	-78.75	78.75	161.25	60	26.25	-3.75	18.75
374	67.5	-56.25	82.5	165	67.5	30	0	22.5
375	67.5	-48.75	86.25	176.25	71.25	33.75	3.75	26.25
376	71.25	-48.75	82.5	176.25	75	33.75	3.75	26.25
377	78.75	-45	86.25	183.75	82.5	45	11.25	33.75
378	93.75	-26.25	93.75	195	93.75	56.25	26.25	45
379	108.75	-15	97.5	206.25	105	63.75	37.5	56.25
380	112.5	-26.25	93.75	206.25	101.25	67.5	41.25	63.75
381	105	-41.25	86.25	202.5	97.5	63.75	37.5	60
382	101.25	-41.25	82.5	198.75	93.75	60	33.75	60
383	108.75	-37.5	78.75	198.75	97.5	60	33.75	56.25
384	120	-30	82.5	202.5	97.5	63.75	37.5	60
385	123.75	-18.75	90	213.75	108.75	71.25	41.25	63.75
386	123.75	-11.25	86.25	210	108.75	67.5	41.25	60
387	112.5	-18.75	93.75	213.75	112.5	71.25	41.25	60
388	105	-18.75	97.5	221.25	120	75	45	60
389	116.25	-3.75	93.75	217.5	120	75	45	63.75
390	127.5	-3.75	90	221.25	120	82.5	52.5	67.5
391	142.5	0	97.5	240	135	97.5	67.5	82.5
392	146.25	-11.25	90	232.5	131.25	93.75	67.5	86.25
393	146.25	-22.5	86.25	225	127.5	93.75	63.75	82.5
394	142.5	-22.5	90	232.5	138.75	101.25	71.25	90
395	142.5	-15	90	240	142.5	105	78.75	93.75
396	153.75	-7.5	86.25	236.25	138.75	105	75	90
397	150	-3.75	78.75	221.25	120	93.75	67.5	82.5
398	142.5	3.75	75	213.75	120	93.75	67.5	82.5
399	138.75	11.25	82.5	225	131.25	97.5	71.25	86.25
400	146.25	18.75	90	236.25	138.75	101.25	75	86.25
401	146.25	18.75	93.75	240	135	105	78.75	86.25
402	153.75	22.5	97.5	240	138.75	108.75	82.5	93.75
403	172.5	26.25	93.75	247.5	146.25	112.5	86.25	101.25
404	172.5	18.75	90	247.5	146.25	112.5	86.25	105
405	165	18.75	97.5	255	153.75	123.75	101.25	116.25
406	168.75	15	90	247.5	146.25	120	101.25	120
407	172.5	3.75	86.25	243.75	146.25	116.25	97.5	116.25
408	176.25	15	90	240	146.25	120	97.5	116.25
409	161.25	26.25	97.5	243.75	146.25	123.75	101.25	123.75
410	161.25	33.75	86.25	232.5	142.5	116.25	97.5	116.25
411	176.25	33.75	78.75	217.5	131.25	108.75	90	108.75
412	172.5	33.75	86.25	217.5	120	105	86.25	105
413	180	45	93.75	236.25	131.25	112.5	93.75	108.75
414	202.5	48.75	93.75	236.25	135	112.5	93.75	112.5
415	217.5	41.25	90	236.25	131.25	108.75	93.75	112.5
416	213.75	30	93.75	240	135	112.5	97.5	120
417	198.75	15	86.25	232.5	127.5	105	90	116.25
418	198.75	22.5	93.75	232.5	127.5	105	93.75	120
419	195	37.5	101.25	232.5	131.25	108.75	97.5	127.5
420	191.25	45	97.5	228.75	123.75	105	93.75	123.75
421	183.75	33.75	90	217.5	112.5	93.75	86.25	116.25
422	176.25	30	86.25	202.5	101.25	86.25	75	105
423	172.5	41.25	90	206.25	101.25	82.5	71.25	97.5
424	172.5	48.75	101.25	213.75	108.75	82.5	75	101.25
425	161.25	45	105	221.25	108.75	82.5	71.25	101.25
426	172.5	45	108.75	213.75	105	82.5	75	101.25
427	180	41.25	108.75	217.5	101.25	86.25	78.75	108.75
428	172.5	33.75	105	217.5	105	78.75	75	105
429	161.25	22.5	101.25	210	97.5	67.5	63.75	93.75
430	172.5	22.5	108.75	210	93.75	71.25	67.5	97.5
431	172.5	22.5	116.25	213.75	97.5	71.25	67.5	97.5
432	168.75	30	120	210	93.75	71.25	63.75	97.5
433	157.5	26.25	120	206.25	86.25	60	56.25	86.25
434	131.25	11.25	120	198.75	78.75	52.5	48.75	75
435	123.75	15	120	191.25	75	45	41.25	67.5
436	127.5	15	131.25	202.5	82.5	48.75	41.25	67.5
437	131.25	7.5	135	202.5	78.75	48.75	41.25	63.75
438	123.75	0	135	195	67.5	33.75	30	56.25
439	123.75	-7.5	142.5	202.5	71.25	37.5	30	60
440	123.75	-22.5	142.5	206.25	75	37.5	26.25	60
441	112.5	-37.5	138.75	198.75	67.5	33.75	22.5	52.5
442	112.5	-41.25	142.5	191.25	60	26.25	18.75	45
443	108.75	-33.75	142.5	191.25	60	26.25	15	45
444	93.75	-30	142.5	183.75	56.25	18.75	11.25	41.25
445	75	-41.25	138.75	168.75	45	7.5	0	30
446	63.75	-52.5	135	157.5	30	0	-11.25	15
447	60	-48.75	138.75	157.5	30	-3.75	-15	11.25
448	60	-41.25	146.25	157.5	33.75	-3.75	-15	11.25
449	60	-45	142.5	157.5	33.75	-7.5	-18.75	3.75
450	56.25	-52.5	138.75	157.5	33.75	-11.25	-22.5	0
451	75	-45	142.5	165	37.5	-7.5	-18.75	7.5
452	93.75	-52.5	142.5	157.5	30	-11.25	-15	7.5
453	78.75	-75	138.75	146.25	22.5	-18.75	-22.5	3.75
454	45	-86.25	135	146.25	22.5	-18.75	-30	0
455	26.25	-86.25	138.75	146.25	26.25	-15	-30	0
456	22.5	-90	138.75	142.5	22.5	-22.5	-33.75	-7.5
457	15	-101.25	135	131.25	11.25	-30	-41.25	-15
458	7.5	-105	127.5	120	3.75	-41.25	-52.5	-30
459	3.75	-90	131.25	116.25	0	-41.25	-56.25	-30
460	3.75	-82.5	131.25	116.25	0	-45	-56.25	-33.75
461	-11.25	-108.75	127.5	108.75	-7.5	-52.5	-63.75	-41.25
462	-3.75	-112.5	131.25	112.5	-3.75	-52.5	-63.75	-41.25
463	11.25	-105	135	120	3.75	-41.25	-56.25	-30
464	18.75	-108.75	123.75	112.5	-3.75	-48.75	-56.25	-33.75
465	22.5	-116.25	116.25	101.25	-11.25	-52.5	-63.75	-37.5
466	15	-112.5	120	101.25	-11.25	-48.75	-63.75	-33.75
467	0	-116.25	123.75	101.25	-11.25	-52.5	-63.75	-33.75
468	-18.75	-131.25	116.25	93.75	-15	-60	-67.5	-41.25
469	-26.25	-138.75	108.75	78.75	-26.25	-67.5	-75	-52.5
470	-26.25	-135	108.75	71.25	-33.75	-75	-82.5	-56.25
471	-22.5	-123.75	108.75	71.25	-37.5	-75	-86.25	-63.75
472	-18.75	-120	112.5	75	-33.75	-75	-82.5	-60
473	-26.25	-123.75	112.5	71.25	-37.5	-75	-86.25	-63.75
474	-22.5	-127.5	112.5	75	-33.75	-75	-82.5	-60
475	-7.5	-127.5	108.75	78.75	-33.75	-75	-82.5	-56.25
476	3.75	-127.5	105	78.75	-30	-71.25	-78.75	-52.5
477	-3.75	-138.75	105	75	-33.75	-71.25	-78.75	-52.5
478	-18.75	-146.25	105	71.25	-37.5	-75	-78.75	-52.5
479	-22.5	-146.25	105	71.25	-33.75	-75	-82.5	-52.5
480	-33.75	-153.75	101.25	63.75	-41.25	-78.75	-86.25	-56.25
481	-41.25	-153.75	105	52.5	-56.25	-82.5	-90	-63.75
482	-48.75	-150	97.5	52.5	-56.25	-90	-93.75	-71.25
483	-48.75	-142.5	90	48.75	-52.5	-90	-101.25	-75
484	-26.25	-116.25	97.5	56.25	-48.75	-82.5	-97.5	-71.25
485	-18.75	-105	101.25	63.75	-41.25	-82.5	-97.5	-71.25
486	-22.5	-120	101.25	67.5	-41.25	-82.5	-90	-67.5
487	-7.5	-123.75	105	78.75	-30	-67.5	-78.75	-56.25
488	-7.5	-138.75	101.25	75	-30	-67.5	-78.75	-48.75
489	-15	-157.5	97.5	71.25	-33.75	-71.25	-82.5	-56.25
490	-15	-150	101.25	71.25	-33.75	-67.5	-78.75	-52.5
491	-18.75	-142.5	101.25	75	-26.25	-63.75	-75	-48.75
492	-22.5	-142.5	101.25	75	-26.25	-60	-75	-48.75
493	-18.75	-138.75	101.25	75	-26.25	-63.75	-78.75	-56.25
494	-26.25	-142.5	97.5	63.75	-37.5	-75	-86.25	-63.75
495	-41.25	-146.25	97.5	60	-45	-78.75	-93.75	-67.5
496	-37.5	-135	101.25	67.5	-37.5	-75	-90	-67.5
497	-30	-123.75	105	71.25	-26.25	-71.25	-86.25	-63.75
498	-15	-112.5	112.5	78.75	-18.75	-60	-75	-48.75
499	-3.75	-112.5	116.25	93.75	-11.25	-48.75	-63.75	-37.5
500	-7.5	-123.75	112.5	97.5	-7.5	-45	-60	-33.75
501	-18.75	-135	108.75	90	-11.25	-48.75	-63.75	-37.5
502	-18.75	-135	105	86.25	-15	-48.75	-63.75	-37.5
503	-15	-131.25	105	86.25	-11.25	-48.75	-67.5	-41.25
504	-11.25	-135	101.25	86.25	-15	-52.5	-71.25	-45
505	-11.25	-138.75	97.5	82.5	-15	-56.25	-71.25	-45
506	-7.5	-127.5	90	71.25	-26.25	-60	-78.75	-52.5
507	-3.75	-112.5	93.75	71.25	-26.25	-60	-75	-52.5
508	-7.5	-112.5	97.5	75	-26.25	-63.75	-78.75	-56.25
509	-22.5	-120	97.5	78.75	-18.75	-60	-78.75	-56.25
510	-33.75	-120	105	90	-7.5	-52.5	-67.5	-45
511	-18.75	-108.75	112.5	97.5	0	-41.25	-56.25	-33.75
512	-7.5	-116.25	105	97.5	-3.75	-41.25	-56.25	-33.75
513	-15	-127.5	101.25	97.5	0	-41.25	-60	-33.75
514	-26.25	-135	101.25	93.75	0	-41.25	-56.25	-33.75
515	-11.25	-127.5	105	93.75	0	-33.75	-52.5	-26.25
516	0	-116.25	105	97.5	3.75	-30	-48.75	-22.5
517	-18.75	-123.75	101.25	90	0	-37.5	-56.25	-30
518	-33.75	-131.25	97.5	82.5	-7.5	-45	-60	-41.25
519	-26.25	-120	97.5	82.5	-7.5	-45	-60	-41.25
520	-11.25	-101.25	101.25	86.25	-3.75	-41.25	-56.25	-37.5
521	-7.5	-97.5	101.25	90	0	-37.5	-52.5	-33.75
522	-15	-108.75	101.25	86.25	-7.5	-41.25	-56.25	-37.5
523	-11.25	-112.5	101.25	86.25	-7.5	-37.5	-52.5	-30
524	3.75	-108.75	101.25	93.75	3.75	-33.75	-41.25	-22.5
525	-7.5	-123.75	93.75	86.25	-3.75	-41.25	-52.5	-30
526	-15	-131.25	90	75	-15	-41.25	-56.25	-30
527	0	-116.25	93.75	75	-11.25	-37.5	-52.5	-26.25
528	7.5	-105	93.75	78.75	-7.5	-37.5	-52.5	-22.5
529	7.5	-108.75	90	67.5	-18.75	-45	-56.25	-30
530	7.5	-108.75	86.25	60	-26.25	-48.75	-63.75	-33.75
531	-7.5	-112.5	82.5	60	-15	-52.5	-67.5	-41.25
532	-18.75	-108.75	86.25	67.5	-11.25	-48.75	-63.75	-41.25
533	-18.75	-108.75	86.25	71.25	-11.25	-48.75	-60	-37.5
534	-11.25	-108.75	86.25	75	-7.5	-45	-56.25	-33.75
535	-11.25	-116.25	93.75	78.75	-3.75	-37.5	-48.75	-22.5
536	0	-116.25	90	82.5	0	-33.75	-45	-18.75
537	7.5	-108.75	86.25	75	-7.5	-41.25	-52.5	-22.5
538	11.25	-108.75	86.25	75	-11.25	-41.25	-52.5	-18.75
539	0	-120	78.75	71.25	-11.25	-41.25	-52.5	-22.5
540	-15	-127.5	75	71.25	-7.5	-41.25	-52.5	-26.25
541	-18.75	-127.5	75	63.75	-15	-48.75	-60	-30
542	-18.75	-112.5	78.75	60	-18.75	-48.75	-60	-33.75
543	-18.75	-101.25	78.75	52.5	-26.25	-52.5	-63.75	-37.5
544	-18.75	-108.75	75	52.5	-33.75	-56.25	-63.75	-37.5
545	-18.75	-108.75	78.75	56.25	-22.5	-52.5	-60	-33.75
546	-15	-108.75	82.5	60	-15	-48.75	-60	-30
547	-11.25	-120	86.25	71.25	-7.5	-41.25	-48.75	-22.5
548	-7.5	-127.5	78.75	67.5	-11.25	-45	-52.5	-18.75
549	-3.75	-127.5	71.25	60	-18.75	-48.75	-56.25	-22.5
550	0	-120	71.25	56.25	-18.75	-48.75	-56.25	-22.5
551	0	-108.75	75	56.25	-18.75	-48.75	-56.25	-18.75
552	-3.75	-112.5	71.25	56.25	-18.75	-48.75	-56.25	-22.5
553	-11.25	-131.25	63.75	48.75	-26.25	-56.25	-60	-30
554	-22.5	-135	60	37.5	-37.5	-63.75	-67.5	-37.5
555	-30	-123.75	60	33.75	-37.5	-67.5	-71.25	-37.5
556	-30	-123.75	60	33.75	-37.5	-71.25	-75	-45
557	-26.25	-127.5	63.75	37.5	-41.25	-71.25	-71.25	-45
558	-18.75	-120	67.5	41.25	-37.5	-67.5	-67.5	-41.25
559	-7.5	-112.5	71.25	52.5	-22.5	-56.25	-56.25	-26.25
560	3.75	-120	67.5	56.25	-18.75	-52.5	-52.5	-22.5
561	-3.75	-131.25	63.75	45	-26.25	-63.75	-63.75	-33.75
562	-15	-138.75	60	37.5	-33.75	-60	-67.5	-30
563	-22.5	-142.5	60	37.5	-37.5	-60	-67.5	-30
564	-30	-142.5	60	41.25	-33.75	-63.75	-63.75	-30
565	-37.5	-138.75	56.25	30	-37.5	-71.25	-71.25	-37.5
566	-33.75	-131.25	56.25	22.5	-45	-75	-75	-45
567	-26.25	-127.5	52.5	15	-52.5	-82.5	-82.5	-48.75
568	-22.5	-116.25	56.25	26.25	-45	-78.75	-78.75	-45
569	-22.5	-116.25	63.75	26.25	-41.25	-75	-75	-45
570	-30	-123.75	63.75	26.25	-41.25	-75	-75	-41.25
571	-18.75	-123.75	67.5	33.75	-37.5	-71.25	-71.25	-33.75
572	-11.25	-131.25	67.5	37.5	-37.5	-67.5	-67.5	-26.25
573	-18.75	-142.5	60	30	-41.25	-71.25	-71.25	-33.75
574	-22.5	-146.25	52.5	22.5	-48.75	-78.75	-75	-37.5
575	-26.25	-146.25	56.25	26.25	-45	-75	-71.25	-33.75
576	-26.25	-142.5	56.25	22.5	-48.75	-78.75	-75	-37.5
577	-18.75	-135	52.5	18.75	-52.5	-78.75	-78.75	-41.25
578	-22.5	-131.25	48.75	7.5	-60	-86.25	-86.25	-48.75
579	-30	-123.75	45	0	-63.75	-90	-90	-56.25
580	-33.75	-120	52.5	3.75	-60	-86.25	-86.25	-52.5
581	-26.25	-120	52.5	7.5	-60	-90	-86.25	-52.5
582	-18.75	-120	60	15	-52.5	-82.5	-78.75	-45
583	-18.75	-131.25	63.75	26.25	-45	-75	-71.25	-37.5
584	-18.75	-146.25	56.25	26.25	-45	-75	-71.25	-37.5
585	-30	-161.25	45	15	-52.5	-86.25	-78.75	-41.25
586	-33.75	-161.25	45	15	-52.5	-82.5	-78.75	-41.25
587	-30	-146.25	56.25	26.25	-45	-78.75	-71.25	-33.75
588	-11.25	-127.5	63.75	30	-41.25	-75	-67.5	-30
589	-11.25	-123.75	56.25	22.5	-48.75	-78.75	-75	-37.5
590	-26.25	-123.75	56.25	18.75	-52.5	-82.5	-78.75	-41.25
591	-26.25	-105	60	18.75	-52.5	-82.5	-78.75	-45
592	-15	-90	75	30	-41.25	-71.25	-67.5	-37.5
593	-11.25	-82.5	86.25	41.25	-30	-63.75	-60	-30
594	-11.25	-78.75	86.25	45	-30	-67.5	-63.75	-33.75
595	-3.75	-75	97.5	56.25	-18.75	-56.25	-56.25	-22.5
596	0	-75	101.25	60	-15	-48.75	-48.75	-11.25
597	-7.5	-82.5	97.5	52.5	-22.5	-52.5	-52.5	-15
598	-18.75	-93.75	101.25	48.75	-26.25	-52.5	-56.25	-18.75
599	-22.5	-97.5	108.75	52.5	-26.25	-52.5	-52.5	-15
600	-11.25	-90	108.75	63.75	-18.75	-48.75	-52.5	-15
601	-11.25	-90	105	67.5	-15	-48.75	-52.5	-18.75
602	-18.75	-90	105	56.25	-22.5	-56.25	-60	-26.25
603	-18.75	-90	108.75	52.5	-30	-60	-63.75	-30
604	-18.75	-78.75	116.25	60	-22.5	-52.5	-56.25	-26.25
605	-15	-63.75	123.75	71.25	-7.5	-45	-48.75	-18.75
606	-7.5	-48.75	131.25	82.5	3.75	-33.75	-37.5	-7.5
607	7.5	-30	138.75	90	7.5	-22.5	-26.25	7.5
608	11.25	-30	138.75	90	7.5	-18.75	-18.75	18.75
609	-3.75	-45	123.75	82.5	11.25	-22.5	-18.75	15
610	-11.25	-48.75	112.5	75	3.75	-22.5	-18.75	18.75
611	-7.5	-48.75	105	71.25	-7.5	-22.5	-18.75	18.75
612	15	-41.25	97.5	71.25	3.75	-18.75	-15	22.5
613	30	-41.25	75	60	0	-26.25	-22.5	15
614	30	-45	60	52.5	-7.5	-30	-26.25	7.5
615	33.75	-33.75	52.5	48.75	-11.25	-37.5	-33.75	0
616	45	-18.75	52.5	45	-15	-41.25	-37.5	-3.75
617	45	-15	52.5	48.75	-11.25	-45	-37.5	-3.75
618	33.75	-22.5	45	45	-18.75	-45	-37.5	-3.75
619	30	-41.25	41.25	41.25	-18.75	-45	-37.5	3.75
620	33.75	-71.25	45	45	-15	-41.25	-30	7.5
621	37.5	-86.25	37.5	41.25	-22.5	-45	-33.75	7.5
622	33.75	-93.75	26.25	30	-30	-52.5	-37.5	3.75
623	37.5	-93.75	26.25	22.5	-33.75	-56.25	-45	0
624	45	-90	30	18.75	-37.5	-56.25	-45	-3.75
625	30	-97.5	30	15	-37.5	-60	-48.75	-11.25
626	15	-108.75	33.75	15	-41.25	-67.5	-56.25	-18.75
627	7.5	-116.25	30	3.75	-56.25	-78.75	-67.5	-33.75
628	11.25	-97.5	37.5	11.25	-48.75	-71.25	-63.75	-30
629	15	-78.75	45	22.5	-33.75	-60	-52.5	-18.75
630	3.75	-82.5	45	22.5	-37.5	-67.5	-60	-26.25
631	0	-97.5	48.75	22.5	-37.5	-67.5	-60	-26.25
632	11.25	-101.25	41.25	22.5	-41.25	-67.5	-60	-22.5
633	3.75	-112.5	33.75	11.25	-52.5	-75	-63.75	-26.25
634	-15	-127.5	33.75	11.25	-52.5	-78.75	-67.5	-30
635	-15	-135	37.5	0	-60	-82.5	-71.25	-33.75
636	-18.75	-150	37.5	-7.5	-75	-90	-82.5	-41.25
637	-33.75	-165	30	-7.5	-71.25	-97.5	-90	-48.75
638	-37.5	-157.5	26.25	-7.5	-71.25	-101.25	-93.75	-56.25
639	-33.75	-146.25	22.5	-15	-78.75	-108.75	-97.5	-63.75
640	-37.5	-150	22.5	-22.5	-86.25	-112.5	-105	-71.25
641	-30	-142.5	26.25	-18.75	-82.5	-112.5	-108.75	-71.25
642	-22.5	-135	26.25	-15	-82.5	-112.5	-108.75	-71.25
643	-18.75	-138.75	30	-11.25	-78.75	-108.75	-101.25	-63.75
644	-22.5	-146.25	33.75	-7.5	-75	-105	-97.5	-56.25
645	-30	-161.25	30	-11.25	-75	-105	-101.25	-56.25
646	-33.75	-168.75	26.25	-11.25	-78.75	-105	-97.5	-56.25
647	-30	-165	26.25	-15	-78.75	-101.25	-93.75	-48.75
648	-37.5	-168.75	26.25	-18.75	-86.25	-105	-93.75	-48.75
649	-45	-176.25	22.5	-22.5	-86.25	-108.75	-101.25	-56.25
650	-52.5	-172.5	18.75	-26.25	-86.25	-112.5	-105	-63.75
651	-52.5	-157.5	26.25	-26.25	-82.5	-112.5	-105	-67.5
652	-48.75	-157.5	30	-22.5	-78.75	-108.75	-105	-67.5
653	-52.5	-165	30	-22.5	-82.5	-112.5	-105	-67.5
654	-45	-153.75	30	-22.5	-82.5	-108.75	-101.25	-63.75
655	-33.75	-146.25	30	-15	-78.75	-105	-93.75	-56.25
656	-37.5	-161.25	37.5	-7.5	-71.25	-101.25	-90	-48.75
657	-37.5	-176.25	30	-11.25	-71.25	-101.25	-90	-52.5
658	-37.5	-176.25	22.5	-18.75	-75	-101.25	-93.75	-56.25
659	-41.25	-168.75	26.25	-15	-75	-101.25	-93.75	-52.5
660	-37.5	-165	22.5	-18.75	-75	-101.25	-93.75	-56.25
661	-33.75	-165	18.75	-18.75	-78.75	-105	-97.5	-60
662	-33.75	-165	26.25	-15	-86.25	-112.5	-108.75	-67.5
663	-33.75	-176.25	45	-3.75	-86.25	-123.75	-123.75	-86.25
664	-33.75	-195	86.25	41.25	-67.5	-127.5	-135	-105
665	-45	-225	138.75	90	-60	-142.5	-157.5	-131.25
666	-37.5	-247.5	195	138.75	-56.25	-165	-187.5	-161.25
667	-18.75	-262.5	247.5	180	-60	-183.75	-213.75	-183.75
668	7.5	-258.75	296.25	228.75	-45	-187.5	-217.5	-183.75
669	30	-236.25	333.75	288.75	-7.5	-165	-198.75	-168.75
670	41.25	-191.25	378.75	367.5	52.5	-112.5	-153.75	-131.25
671	56.25	-150	420	446.25	116.25	-56.25	-101.25	-90
672	93.75	-101.25	442.5	506.25	183.75	-3.75	-52.5	-45
673	142.5	-33.75	457.5	562.5	251.25	63.75	11.25	15
674	183.75	41.25	472.5	611.25	311.25	131.25	78.75	78.75
675	255	135	476.25	671.25	390	221.25	168.75	165
676	341.25	251.25	457.5	727.5	491.25	345	292.5	281.25
677	401.25	375	416.25	753.75	588.75	472.5	423.75	405
678	442.5	498.75	337.5	746.25	675	592.5	558.75	536.25
679	506.25	652.5	277.5	765	798.75	761.25	731.25	705
680	555	840	266.25	817.5	948.75	948.75	922.5	885
681	570	1050	202.5	772.5	1038.75	1113.75	1102.5	1068.75
682	592.5	1293.75	52.5	637.5	1087.5	1267.5	1301.25	1278.75
683	622.5	1473.75	-101.25	498.75	1132.5	1417.5	1481.25	1466.25
684	656.25	1545	-262.5	315	1143.75	1518.75	1605	1586.25
685	648.75	1597.5	-397.5	161.25	1166.25	1616.25	1713.75	1683.75
686	573.75	1605	-438.75	120	1230	1706.25	1788.75	1732.5
687	480	1537.5	-420	120	1286.25	1758.75	1807.5	1706.25
688	397.5	1466.25	-435	75	1316.25	1781.25	1800	1668.75
689	311.25	1380	-506.25	-37.5	1260	1721.25	1725	1586.25
690	221.25	1215	-551.25	-165	1106.25	1530	1533.75	1413.75
691	112.5	993.75	-521.25	-247.5	900	1252.5	1263.75	1170
692	3.75	765	-498.75	-360	618.75	922.5	960	918.75
693	-75	543.75	-528.75	-551.25	262.5	547.5	641.25	671.25
694	-142.5	363.75	-551.25	-720	-60	221.25	363.75	453.75
695	-191.25	240	-532.5	-776.25	-228.75	26.25	176.25	292.5
696	-210	131.25	-480	-712.5	-251.25	-48.75	67.5	168.75
697	-206.25	37.5	-446.25	-630	-221.25	-75	-3.75	71.25
698	-195	-11.25	-423.75	-540	-172.5	-71.25	-26.25	30
699	-176.25	-15	-378.75	-446.25	-123.75	-37.5	-7.5	37.5
700	-153.75	-18.75	-333.75	-382.5	-105	-26.25	3.75	37.5
701	-135	-33.75	-285	-326.25	-101.25	-30	0	33.75
702	-108.75	-45	-240	-258.75	-86.25	-30	0	33.75
703	-67.5	-22.5	-183.75	-172.5	-37.5	0	26.25	56.25
704	-30	7.5	-135	-93.75	11.25	33.75	52.5	82.5
705	-15	7.5	-97.5	-33.75	52.5	56.25	67.5	90
706	-3.75	-3.75	-52.5	18.75	78.75	71.25	75	93.75
707	7.5	-11.25	-15	56.25	93.75	75	75	93.75
708	-3.75	-30	7.5	71.25	97.5	71.25	63.75	78.75
709	-7.5	-45	18.75	78.75	90	56.25	48.75	60
710	-15	-63.75	22.5	71.25	75	37.5	30	41.25
711	-18.75	-71.25	33.75	75	67.5	30	18.75	26.25
712	-15	-60	52.5	90	71.25	26.25	15	26.25
713	-15	-60	60	93.75	63.75	18.75	7.5	15
714	-11.25	-71.25	56.25	93.75	56.25	7.5	0	11.25
715	0	-75	63.75	105	63.75	7.5	0	18.75
716	7.5	-86.25	67.5	108.75	60	3.75	0	18.75
717	11.25	-97.5	63.75	105	52.5	0	-3.75	15
718	3.75	-108.75	60	101.25	45	-3.75	-11.25	11.25
719	-7.5	-120	63.75	101.25	45	-7.5	-15	3.75
720	3.75	-116.25	67.5	97.5	33.75	-11.25	-22.5	0
721	3.75	-108.75	71.25	97.5	33.75	-11.25	-22.5	0
722	-7.5	-108.75	67.5	97.5	33.75	-15	-26.25	-7.5
723	-11.25	-105	71.25	97.5	26.25	-22.5	-30	-11.25
724	-3.75	-97.5	67.5	97.5	26.25	-22.5	-33.75	-18.75
725	-3.75	-93.75	67.5	105	30	-22.5	-30	-15
726	-3.75	-97.5	71.25	105	26.25	-26.25	-37.5	-18.75
727	7.5	-97.5	78.75	112.5	33.75	-22.5	-33.75	-11.25
728	18.75	-108.75	78.75	112.5	30	-18.75	-30	-3.75
729	18.75	-127.5	75	108.75	30	-18.75	-26.25	-3.75
730	22.5	-120	75	112.5	33.75	-15	-22.5	0
731	18.75	-116.25	75	116.25	41.25	-7.5	-22.5	3.75
732	11.25	-120	75	116.25	41.25	-11.25	-22.5	3.75
733	26.25	-108.75	78.75	116.25	41.25	-11.25	-18.75	7.5
734	37.5	-105	71.25	108.75	37.5	-18.75	-26.25	-3.75
735	26.25	-97.5	75	108.75	33.75	-15	-26.25	-7.5
736	22.5	-86.25	75	112.5	33.75	-15	-26.25	-3.75
737	30	-78.75	78.75	120	41.25	-7.5	-18.75	0
738	26.25	-78.75	78.75	123.75	41.25	-11.25	-18.75	0
739	30	-75	86.25	138.75	56.25	3.75	-7.5	11.25
740	52.5	-75	97.5	150	71.25	15	7.5	26.25
741	67.5	-78.75	93.75	146.25	63.75	15	7.5	26.25
742	48.75	-93.75	86.25	138.75	63.75	11.25	3.75	22.5
743	30	-108.75	82.5	138.75	60	7.5	0	18.75
744	37.5	-108.75	82.5	138.75	60	7.5	0	18.75
745	45	-97.5	82.5	142.5	63.75	11.25	0	18.75
746	37.5	-97.5	86.25	142.5	63.75	15	0	18.75
747	33.75	-90	86.25	138.75	60	11.25	-3.75	11.25
748	33.75	-75	90	146.25	67.5	15	3.75	15
749	26.25	-86.25	90	142.5	63.75	11.25	0	11.25
750	30	-90	86.25	146.25	67.5	15	3.75	15
751	52.5	-75	93.75	161.25	82.5	26.25	15	30
752	67.5	-78.75	90	165	86.25	30	22.5	37.5
753	67.5	-82.5	90	168.75	90	33.75	26.25	41.25
754	71.25	-75	93.75	172.5	93.75	41.25	30	48.75
755	71.25	-82.5	93.75	172.5	93.75	41.25	26.25	45
756	75	-82.5	97.5	180	97.5	41.25	30	45
757	67.5	-75	97.5	176.25	97.5	41.25	30	45
758	63.75	-75	90	157.5	78.75	33.75	22.5	37.5
759	63.75	-71.25	90	157.5	82.5	33.75	22.5	33.75
760	75	-56.25	97.5	176.25	101.25	45	30	41.25
761	75	-48.75	101.25	183.75	105	48.75	33.75	45
762	75	-45	105	191.25	108.75	52.5	41.25	52.5
763	86.25	-45	108.75	202.5	120	63.75	48.75	60
764	93.75	-56.25	112.5	210	127.5	71.25	56.25	67.5
765	93.75	-63.75	105	198.75	123.75	67.5	48.75	63.75
766	90	-60	101.25	195	116.25	60	45	60
767	93.75	-48.75	101.25	202.5	123.75	67.5	48.75	67.5
768	108.75	-37.5	105	210	127.5	75	56.25	75
769	105	-45	97.5	198.75	116.25	67.5	52.5	71.25
770	90	-52.5	97.5	198.75	123.75	67.5	52.5	67.5
771	90	-45	97.5	198.75	127.5	71.25	56.25	67.5
772	97.5	-41.25	93.75	202.5	127.5	75	56.25	71.25
773	108.75	-30	105	221.25	142.5	86.25	71.25	78.75
774	120	-18.75	112.5	228.75	153.75	93.75	78.75	86.25
775	120	-7.5	112.5	232.5	157.5	101.25	82.5	93.75
776	123.75	-7.5	108.75	236.25	157.5	101.25	82.5	101.25
777	120	-30	105	232.5	153.75	101.25	78.75	97.5
778	123.75	-33.75	105	221.25	146.25	97.5	75	93.75
779	131.25	-15	105	221.25	142.5	97.5	78.75	97.5
780	131.25	-11.25	105	221.25	138.75	97.5	78.75	101.25
781	135	-18.75	101.25	225	146.25	97.5	78.75	97.5
782	135	-15	101.25	232.5	157.5	105	86.25	101.25
783	138.75	-7.5	105	228.75	157.5	105	90	101.25
784	146.25	3.75	105	232.5	161.25	108.75	90	101.25
785	150	7.5	101.25	232.5	157.5	105	86.25	101.25
786	153.75	11.25	101.25	232.5	157.5	108.75	90	105
787	161.25	18.75	101.25	243.75	168.75	116.25	97.5	116.25
788	157.5	7.5	105	255	176.25	127.5	108.75	127.5
789	153.75	-7.5	97.5	243.75	165	120	105	123.75
790	161.25	-3.75	101.25	243.75	165	120	105	123.75
791	168.75	3.75	105	247.5	168.75	123.75	108.75	127.5
792	165	0	101.25	243.75	165	120	108.75	131.25
793	157.5	0	101.25	236.25	157.5	116.25	105	127.5
794	150	0	105	236.25	157.5	112.5	101.25	123.75
795	157.5	15	105	236.25	153.75	112.5	101.25	120
796	165	26.25	101.25	232.5	153.75	108.75	101.25	120
797	168.75	22.5	101.25	232.5	153.75	108.75	97.5	120
798	180	26.25	101.25	236.25	153.75	108.75	97.5	123.75
799	191.25	33.75	108.75	236.25	150	108.75	105	127.5
800	198.75	37.5	108.75	240	146.25	112.5	105	135
801	198.75	33.75	108.75	243.75	153.75	116.25	112.5	138.75
802	191.25	18.75	101.25	236.25	150	112.5	108.75	135
803	183.75	15	105	232.5	146.25	108.75	105	138.75
804	180	18.75	108.75	236.25	150	112.5	108.75	142.5
805	176.25	15	101.25	232.5	142.5	108.75	101.25	135
806	176.25	15	97.5	221.25	131.25	97.5	93.75	127.5
807	176.25	26.25	97.5	210	123.75	90	90	123.75
808	172.5	37.5	108.75	217.5	123.75	93.75	90	127.5
809	168.75	41.25	120	221.25	127.5	93.75	93.75	127.5
810	161.25	30	112.5	213.75	120	86.25	86.25	120
811	168.75	30	112.5	213.75	120	90	90	123.75
812	187.5	33.75	120	221.25	127.5	90	90	127.5
813	180	26.25	123.75	225	123.75	86.25	90	127.5
814	180	26.25	120	217.5	112.5	82.5	86.25	123.75
815	172.5	15	123.75	217.5	112.5	82.5	82.5	120
816	157.5	-3.75	127.5	221.25	116.25	78.75	78.75	116.25
817	146.25	0	123.75	217.5	112.5	71.25	71.25	108.75
818	142.5	3.75	123.75	206.25	97.5	63.75	60	97.5
819	138.75	0	123.75	198.75	86.25	52.5	52.5	90
820	131.25	0	131.25	198.75	86.25	45	48.75	86.25
821	112.5	3.75	135	202.5	90	45	45	82.5
822	105	7.5	142.5	206.25	90	45	45	78.75
823	116.25	7.5	150	213.75	97.5	48.75	48.75	82.5
824	131.25	11.25	161.25	225	108.75	60	56.25	97.5
825	131.25	7.5	161.25	221.25	105	52.5	56.25	93.75
826	112.5	-15	153.75	206.25	90	41.25	41.25	78.75
827	101.25	-26.25	146.25	198.75	78.75	33.75	33.75	71.25
828	97.5	-30	146.25	195	75	30	26.25	67.5
829	82.5	-48.75	150	191.25	71.25	22.5	22.5	60
830	71.25	-60	146.25	180	63.75	15	11.25	45
831	60	-52.5	146.25	172.5	56.25	11.25	3.75	37.5
832	60	-37.5	150	168.75	56.25	3.75	0	30
833	56.25	-37.5	153.75	172.5	56.25	3.75	0	26.25
834	45	-45	150	168.75	52.5	0	-7.5	22.5
835	56.25	-48.75	157.5	172.5	60	3.75	0	30
836	63.75	-56.25	161.25	183.75	63.75	11.25	7.5	41.25
837	63.75	-63.75	153.75	168.75	48.75	3.75	0	33.75
838	41.25	-82.5	146.25	153.75	37.5	-3.75	-11.25	22.5
839	30	-90	142.5	150	45	-7.5	-15	18.75
840	22.5	-97.5	142.5	146.25	37.5	-11.25	-18.75	15
841	18.75	-97.5	142.5	142.5	33.75	-11.25	-22.5	11.25
842	18.75	-86.25	142.5	135	30	-18.75	-26.25	7.5
843	7.5	-86.25	135	123.75	22.5	-26.25	-37.5	-3.75
844	-3.75	-93.75	135	123.75	18.75	-30	-41.25	-11.25
845	-3.75	-93.75	138.75	123.75	15	-33.75	-41.25	-11.25
846	3.75	-90	135	116.25	15	-33.75	-41.25	-11.25
847	11.25	-86.25	138.75	116.25	7.5	-33.75	-37.5	-7.5
848	11.25	-93.75	146.25	123.75	15	-26.25	-33.75	0
849	7.5	-105	135	120	18.75	-26.25	-37.5	-3.75
850	-7.5	-127.5	127.5	105	3.75	-41.25	-48.75	-15
851	-7.5	-131.25	131.25	105	3.75	-37.5	-45	-11.25
852	-15	-131.25	123.75	97.5	-3.75	-45	-52.5	-18.75
853	-26.25	-138.75	120	86.25	-7.5	-52.5	-60	-22.5
854	-33.75	-142.5	116.25	82.5	-11.25	-56.25	-67.5	-30
855	-30	-131.25	116.25	78.75	-15	-60	-71.25	-37.5
856	-26.25	-123.75	120	75	-18.75	-60	-71.25	-37.5
857	-26.25	-120	120	75	-18.75	-63.75	-71.25	-37.5
858	-26.25	-116.25	120	78.75	-15	-63.75	-71.25	-37.5
859	-22.5	-120	123.75	78.75	-18.75	-60	-67.5	-33.75
860	-18.75	-127.5	127.5	82.5	-15	-56.25	-63.75	-26.25
861	-22.5	-142.5	120	78.75	-15	-56.25	-63.75	-26.25
862	-37.5	-161.25	112.5	67.5	-22.5	-63.75	-71.25	-33.75
863	-45	-161.25	116.25	71.25	-26.25	-63.75	-71.25	-30
864	-45	-157.5	112.5	63.75	-26.25	-67.5	-75	-37.5
865	-41.25	-153.75	112.5	60	-26.25	-67.5	-75	-41.25
866	-30	-142.5	105	56.25	-30	-75	-82.5	-48.75
867	-33.75	-127.5	108.75	56.25	-37.5	-71.25	-78.75	-45
868	-37.5	-120	116.25	45	-45	-71.25	-78.75	-41.25
869	-33.75	-120	116.25	56.25	-26.25	-63.75	-75	-41.25
870	-37.5	-135	116.25	71.25	-15	-63.75	-75	-41.25
871	-30	-146.25	116.25	71.25	-18.75	-63.75	-75	-41.25
872	-33.75	-153.75	123.75	75	-15	-56.25	-67.5	-33.75
873	-30	-157.5	120	75	-11.25	-52.5	-63.75	-30
874	-18.75	-157.5	112.5	71.25	-15	-52.5	-63.75	-30
875	-33.75	-161.25	112.5	71.25	-15	-56.25	-63.75	-33.75
876	-48.75	-161.25	112.5	75	-15	-56.25	-63.75	-33.75
877	-41.25	-157.5	112.5	75	-15	-52.5	-60	-30
878	-37.5	-150	112.5	67.5	-18.75	-56.25	-63.75	-33.75
879	-33.75	-138.75	108.75	63.75	-18.75	-60	-71.25	-41.25
880	-30	-123.75	112.5	67.5	-18.75	-60	-71.25	-41.25
881	-33.75	-120	116.25	75	-15	-56.25	-67.5	-37.5
882	-33.75	-127.5	116.25	75	-11.25	-52.5	-63.75	-33.75
883	-26.25	-127.5	116.25	82.5	-3.75	-48.75	-56.25	-26.25
884	-15	-123.75	123.75	93.75	7.5	-33.75	-45	-15
885	-18.75	-131.25	123.75	93.75	0	-37.5	-45	-15
886	-22.5	-131.25	120	86.25	-3.75	-41.25	-48.75	-18.75
887	-18.75	-135	116.25	86.25	0	-41.25	-52.5	-18.75
888	-22.5	-135	112.5	82.5	-3.75	-41.25	-56.25	-18.75
889	-30	-138.75	112.5	75	-11.25	-45	-60	-26.25
890	-33.75	-146.25	108.75	75	-11.25	-48.75	-63.75	-30
891	-45	-138.75	112.5	78.75	-3.75	-45	-60	-30
892	-45	-120	116.25	78.75	-3.75	-41.25	-56.25	-30
893	-41.25	-116.25	116.25	82.5	0	-41.25	-52.5	-26.25
894	-48.75	-127.5	120	86.25	3.75	-37.5	-48.75	-22.5
895	-45	-131.25	123.75	93.75	11.25	-30	-41.25	-15
896	-7.5	-123.75	120	101.25	15	-26.25	-33.75	-7.5
897	-7.5	-135	116.25	93.75	7.5	-30	-41.25	-7.5
898	-15	-135	112.5	93.75	7.5	-26.25	-41.25	-7.5
899	-11.25	-127.5	108.75	90	11.25	-26.25	-37.5	-3.75
900	-22.5	-127.5	112.5	90	7.5	-26.25	-37.5	-3.75
901	-41.25	-138.75	112.5	90	7.5	-33.75	-45	-11.25
902	-41.25	-138.75	108.75	86.25	3.75	-33.75	-52.5	-18.75
903	-33.75	-131.25	105	78.75	-7.5	-37.5	-52.5	-22.5
904	-22.5	-120	112.5	78.75	-7.5	-37.5	-48.75	-18.75
905	-22.5	-112.5	112.5	86.25	7.5	-30	-45	-18.75
906	-30	-108.75	116.25	97.5	18.75	-22.5	-41.25	-11.25
907	-18.75	-105	120	97.5	15	-26.25	-37.5	-7.5
908	-11.25	-112.5	116.25	101.25	15	-22.5	-33.75	0
909	-3.75	-120	108.75	93.75	11.25	-22.5	-33.75	0
910	-11.25	-123.75	105	86.25	7.5	-26.25	-33.75	0
911	-18.75	-123.75	108.75	86.25	7.5	-22.5	-30	3.75
912	-15	-123.75	108.75	78.75	-3.75	-22.5	-30	0
913	-22.5	-127.5	105	78.75	3.75	-26.25	-33.75	-3.75
914	-26.25	-123.75	101.25	75	-3.75	-33.75	-45	-11.25
915	-30	-116.25	97.5	71.25	-7.5	-41.25	-52.5	-18.75
916	-33.75	-116.25	97.5	71.25	0	-33.75	-48.75	-18.75
917	-33.75	-112.5	97.5	71.25	-3.75	-37.5	-52.5	-22.5
918	-30	-105	105	78.75	0	-37.5	-48.75	-18.75
919	-22.5	-105	112.5	90	11.25	-26.25	-37.5	-7.5
920	-18.75	-112.5	112.5	93.75	15	-22.5	-30	0
921	-11.25	-116.25	105	86.25	7.5	-26.25	-33.75	0
922	-11.25	-123.75	97.5	78.75	0	-33.75	-41.25	-7.5
923	-11.25	-123.75	101.25	75	0	-30	-41.25	-3.75
924	-11.25	-131.25	97.5	75	0	-33.75	-41.25	-3.75
925	-22.5	-150	90	67.5	-7.5	-37.5	-48.75	-11.25
926	-30	-146.25	90	60	-11.25	-41.25	-48.75	-18.75
927	-45	-131.25	97.5	60	-7.5	-37.5	-45	-15
928	-41.25	-108.75	101.25	67.5	0	-33.75	-45	-7.5
929	-26.25	-101.25	101.25	67.5	-3.75	-37.5	-48.75	-11.25
930	-22.5	-116.25	93.75	56.25	-15	-45	-56.25	-22.5
931	-22.5	-108.75	93.75	56.25	-15	-45	-56.25	-22.5
932	-15	-105	93.75	63.75	-3.75	-37.5	-48.75	-11.25
933	-11.25	-127.5	97.5	63.75	-3.75	-33.75	-37.5	0
934	-15	-135	101.25	67.5	0	-26.25	-33.75	7.5
935	-22.5	-123.75	101.25	67.5	3.75	-26.25	-30	7.5
936	-15	-116.25	97.5	63.75	0	-30	-37.5	0
937	-15	-120	90	52.5	-15	-41.25	-48.75	-11.25
938	-33.75	-127.5	86.25	45	-15	-45	-52.5	-15
939	-37.5	-127.5	86.25	41.25	-22.5	-48.75	-56.25	-22.5
940	-33.75	-120	93.75	41.25	-22.5	-48.75	-56.25	-22.5
941	-26.25	-116.25	93.75	45	-18.75	-45	-56.25	-18.75
942	-26.25	-120	90	41.25	-26.25	-48.75	-60	-22.5
943	-30	-112.5	93.75	48.75	-15	-41.25	-52.5	-15
944	-26.25	-120	93.75	56.25	-11.25	-41.25	-48.75	-11.25
945	-26.25	-138.75	90	56.25	-11.25	-41.25	-45	-7.5
946	-26.25	-142.5	86.25	48.75	-15	-45	-52.5	-11.25
947	-26.25	-135	90	45	-15	-41.25	-52.5	-7.5
948	-18.75	-127.5	82.5	45	-15	-41.25	-52.5	-11.25
949	-26.25	-127.5	82.5	41.25	-18.75	-45	-52.5	-11.25
950	-37.5	-138.75	78.75	26.25	-37.5	-56.25	-63.75	-22.5
951	-41.25	-138.75	75	15	-41.25	-60	-67.5	-30
952	-33.75	-127.5	75	26.25	-30	-56.25	-63.75	-26.25
953	-26.25	-120	78.75	26.25	-30	-60	-67.5	-26.25
954	-18.75	-116.25	82.5	30	-30	-56.25	-63.75	-26.25
955	-15	-112.5	86.25	41.25	-22.5	-48.75	-56.25	-15
956	-15	-116.25	86.25	41.25	-18.75	-45	-48.75	-3.75
957	-22.5	-135	82.5	37.5	-22.5	-45	-52.5	-7.5
958	-30	-146.25	78.75	37.5	-22.5	-45	-52.5	-11.25
959	-37.5	-146.25	82.5	33.75	-22.5	-48.75	-52.5	-7.5
960	-33.75	-146.25	82.5	30	-30	-52.5	-56.25	-11.25
961	-30	-142.5	82.5	30	-30	-48.75	-52.5	-11.25
962	-37.5	-142.5	71.25	15	-45	-60	-63.75	-22.5
963	-37.5	-135	67.5	7.5	-52.5	-63.75	-67.5	-22.5
964	-22.5	-120	71.25	7.5	-41.25	-63.75	-67.5	-26.25
965	-15	-112.5	78.75	18.75	-33.75	-60	-63.75	-22.5
966	-26.25	-120	71.25	18.75	-41.25	-63.75	-67.5	-26.25
967	-30	-127.5	71.25	22.5	-33.75	-56.25	-60	-18.75
968	-26.25	-131.25	82.5	30	-26.25	-48.75	-52.5	-11.25
969	-26.25	-142.5	78.75	26.25	-33.75	-56.25	-56.25	-11.25
970	-33.75	-153.75	75	18.75	-37.5	-63.75	-60	-15
971	-30	-146.25	78.75	26.25	-30	-56.25	-56.25	-11.25
972	-33.75	-146.25	78.75	22.5	-33.75	-56.25	-60	-11.25
973	-30	-146.25	78.75	18.75	-37.5	-56.25	-60	-11.25
974	-22.5	-142.5	71.25	11.25	-41.25	-63.75	-67.5	-18.75
975	-30	-135	67.5	7.5	-45	-67.5	-71.25	-26.25
976	-41.25	-131.25	71.25	7.5	-45	-67.5	-75	-30
977	-37.5	-120	75	7.5	-45	-67.5	-75	-30
978	-33.75	-112.5	78.75	11.25	-48.75	-67.5	-67.5	-26.25
979	-30	-112.5	82.5	18.75	-41.25	-63.75	-63.75	-18.75
980	-26.25	-116.25	86.25	30	-26.25	-52.5	-56.25	-11.25
981	-15	-112.5	90	33.75	-18.75	-45	-48.75	-3.75
982	-15	-105	93.75	30	-22.5	-45	-45	0
983	-18.75	-101.25	105	33.75	-22.5	-41.25	-41.25	3.75
984	-26.25	-105	108.75	45	-15	-33.75	-37.5	3.75
985	-33.75	-101.25	105	45	-11.25	-33.75	-37.5	3.75
986	-41.25	-93.75	108.75	41.25	-18.75	-37.5	-41.25	0
987	-37.5	-90	116.25	41.25	-15	-37.5	-45	-7.5
988	-26.25	-86.25	116.25	37.5	-18.75	-45	-52.5	-15
989	-15	-78.75	120	45	-15	-41.25	-48.75	-11.25
990	-11.25	-75	131.25	48.75	-11.25	-37.5	-45	-7.5
991	-7.5	-75	135	60	0	-30	-37.5	3.75
992	0	-71.25	142.5	78.75	15	-18.75	-22.5	15
993	3.75	-71.25	142.5	78.75	15	-18.75	-26.25	15
994	-3.75	-78.75	138.75	71.25	7.5	-22.5	-30	15
995	-7.5	-75	138.75	67.5	3.75	-22.5	-30	15
996	-11.25	-67.5	135	71.25	11.25	-15	-22.5	18.75
997	-15	-63.75	138.75	67.5	11.25	-11.25	-18.75	26.25
998	-15	-52.5	138.75	60	0	-15	-18.75	26.25
999	-18.75	-37.5	131.25	60	7.5	-11.25	-18.75	22.5
1000	-15	-26.25	127.5	67.5	18.75	-7.5	-11.25	26.25
1001	-3.75	-22.5	120	67.5	18.75	-3.75	-3.75	33.75
1002	11.25	-11.25	108.75	63.75	18.75	-3.75	-3.75	37.5
1003	26.25	-7.5	93.75	67.5	22.5	-3.75	-3.75	37.5
1004	33.75	-22.5	78.75	63.75	15	-3.75	0	41.25
1005	37.5	-33.75	78.75	63.75	15	0	0	48.75
1006	41.25	-45	75	63.75	15	-3.75	-3.75	45
1007	45	-56.25	63.75	52.5	7.5	-11.25	-7.5	37.5
1008	37.5	-63.75	60	45	3.75	-11.25	-11.25	37.5
1009	26.25	-71.25	48.75	26.25	-15	-26.25	-26.25	26.25
1010	22.5	-75	41.25	15	-26.25	-33.75	-33.75	18.75
1011	30	-71.25	41.25	11.25	-26.25	-37.5	-33.75	15
1012	33.75	-63.75	37.5	3.75	-30	-41.25	-41.25	7.5
1013	30	-63.75	37.5	7.5	-30	-45	-41.25	7.5
1014	15	-63.75	52.5	18.75	-18.75	-30	-33.75	15
1015	7.5	-71.25	60	18.75	-18.75	-30	-30	15
1016	11.25	-90	56.25	18.75	-18.75	-37.5	-33.75	15
1017	15	-101.25	56.25	22.5	-18.75	-37.5	-33.75	15
1018	22.5	-86.25	63.75	30	-11.25	-26.25	-26.25	22.5
1019	22.5	-82.5	67.5	30	-11.25	-26.25	-26.25	22.5
1020	-7.5	-108.75	60	15	-26.25	-41.25	-37.5	11.25
1021	-30	-127.5	52.5	3.75	-37.5	-48.75	-48.75	0
1022	-30	-123.75	52.5	0	-41.25	-52.5	-52.5	-7.5
1023	-30	-116.25	48.75	-15	-56.25	-60	-63.75	-18.75
1024	-37.5	-116.25	48.75	-11.25	-52.5	-67.5	-67.5	-26.25
1025	-33.75	-116.25	52.5	-15	-56.25	-71.25	-71.25	-30
1026	-30	-120	48.75	-26.25	-75	-78.75	-78.75	-33.75
1027	-18.75	-120	48.75	-18.75	-60	-75	-75	-30
1028	-26.25	-131.25	52.5	-3.75	-45	-67.5	-71.25	-26.25
1029	-33.75	-146.25	52.5	-11.25	-56.25	-75	-75	-30
1030	-37.5	-153.75	45	-18.75	-63.75	-82.5	-82.5	-33.75
1031	-37.5	-161.25	41.25	-22.5	-63.75	-82.5	-86.25	-33.75
1032	-37.5	-165	33.75	-30	-71.25	-86.25	-82.5	-33.75
1033	-41.25	-168.75	33.75	-30	-75	-86.25	-78.75	-30
1034	-45	-165	37.5	-30	-71.25	-86.25	-82.5	-37.5
1035	-37.5	-153.75	33.75	-33.75	-67.5	-86.25	-86.25	-45
1036	-37.5	-138.75	41.25	-30	-67.5	-82.5	-82.5	-41.25
1037	-48.75	-131.25	45	-30	-67.5	-82.5	-82.5	-41.25
1038	-52.5	-135	45	-22.5	-60	-82.5	-82.5	-41.25
1039	-52.5	-146.25	48.75	-18.75	-56.25	-78.75	-78.75	-41.25
1040	-41.25	-150	48.75	-15	-60	-78.75	-75	-33.75
1041	-37.5	-153.75	48.75	-11.25	-56.25	-75	-75	-30
1042	-45	-161.25	48.75	-15	-56.25	-75	-75	-30
1043	-48.75	-161.25	45	-18.75	-60	-78.75	-78.75	-33.75
1044	-45	-157.5	45	-15	-56.25	-75	-78.75	-33.75
1045	-41.25	-157.5	45	-15	-60	-75	-75	-30
1046	-41.25	-153.75	41.25	-22.5	-63.75	-78.75	-78.75	-37.5
1047	-45	-150	37.5	-26.25	-67.5	-82.5	-86.25	-45
1048	-52.5	-142.5	41.25	-26.25	-63.75	-82.5	-86.25	-45
1049	-52.5	-138.75	45	-22.5	-63.75	-86.25	-90	-48.75
1050	-52.5	-142.5	48.75	-18.75	-60	-82.5	-82.5	-45
1051	-52.5	-150	48.75	-11.25	-60	-82.5	-82.5	-45
1052	-41.25	-165	56.25	-7.5	-60	-82.5	-86.25	-45
1053	-37.5	-187.5	67.5	3.75	-71.25	-93.75	-101.25	-56.25
1054	-45	-206.25	108.75	48.75	-48.75	-97.5	-108.75	-71.25
1055	-41.25	-225	161.25	97.5	-33.75	-108.75	-131.25	-101.25
1056	-33.75	-258.75	210	138.75	-41.25	-135	-165	-135
1057	-30	-277.5	258.75	180	-37.5	-153.75	-187.5	-161.25
1058	-30	-273.75	296.25	213.75	-30	-165	-202.5	-176.25
1059	-11.25	-243.75	341.25	281.25	11.25	-135	-180	-165
1060	26.25	-180	393.75	367.5	82.5	-78.75	-135	-120
1061	67.5	-112.5	431.25	450	157.5	-15	-75	-71.25
1062	112.5	-63.75	450	517.5	225	48.75	-15	-15
1063	161.25	0	468.75	573.75	288.75	116.25	48.75	48.75
1064	221.25	82.5	483.75	633.75	360	191.25	131.25	127.5
1065	285	146.25	480	693.75	435	285	225	213.75
1066	345	240	453.75	735	528.75	401.25	345	330
1067	401.25	393.75	412.5	753.75	618.75	517.5	468.75	453.75
1068	480	566.25	352.5	757.5	716.25	660	618.75	596.25
1069	558.75	727.5	296.25	772.5	832.5	817.5	780	753.75
1070	577.5	892.5	277.5	810	956.25	978.75	948.75	911.25
1071	570	1091.25	198.75	761.25	1038.75	1132.5	1125	1091.25
1072	577.5	1323.75	56.25	641.25	1095	1293.75	1327.5	1305
1073	630	1500	-82.5	510	1140	1432.5	1500	1481.25
1074	656.25	1560	-228.75	326.25	1136.25	1526.25	1616.25	1597.5
1075	630	1605	-348.75	180	1158.75	1627.5	1728.75	1698.75
1076	573.75	1605	-363.75	183.75	1252.5	1732.5	1815	1755
1077	495	1530	-337.5	195	1308.75	1785	1830	1732.5
1078	397.5	1447.5	-360	123.75	1308.75	1785	1803.75	1683.75
1079	296.25	1346.25	-431.25	-3.75	1233.75	1706.25	1717.5	1593.75
1080	195	1166.25	-472.5	-135	1065	1500	1507.5	1402.5
1081	71.25	937.5	-438.75	-213.75	870	1218.75	1222.5	1147.5
1082	-45	731.25	-416.25	-341.25	581.25	885	918.75	892.5
1083	-123.75	555	-453.75	-540	228.75	513.75	603.75	648.75
1084	-191.25	397.5	-480	-693.75	-56.25	217.5	345	438.75
1085	-225	270	-450	-723.75	-187.5	56.25	180	285
1086	-228.75	150	-408.75	-663.75	-202.5	-15	71.25	165
1087	-225	52.5	-382.5	-592.5	-183.75	-45	7.5	78.75
1088	-206.25	7.5	-367.5	-506.25	-131.25	-26.25	7.5	60
1089	-168.75	-7.5	-333.75	-416.25	-82.5	11.25	33.75	75
1090	-153.75	-33.75	-303.75	-363.75	-78.75	7.5	33.75	71.25
1091	-131.25	-48.75	-266.25	-322.5	-90	-3.75	22.5	63.75
1092	-97.5	-45	-225	-262.5	-71.25	-3.75	18.75	60
1093	-71.25	-22.5	-172.5	-187.5	-33.75	18.75	33.75	71.25
1094	-67.5	-3.75	-131.25	-123.75	-3.75	33.75	48.75	82.5
1095	-48.75	11.25	-97.5	-63.75	33.75	56.25	60	86.25
1096	-22.5	22.5	-52.5	-7.5	71.25	75	71.25	93.75
1097	-7.5	22.5	-7.5	37.5	93.75	82.5	75	90
1098	-3.75	15	22.5	63.75	101.25	86.25	75	86.25
1099	-7.5	3.75	41.25	75	101.25	78.75	67.5	78.75
1100	0	0	60	97.5	112.5	82.5	67.5	82.5
1101	3.75	-15	63.75	105	108.75	78.75	63.75	78.75
1102	-3.75	-56.25	60	90	86.25	56.25	41.25	56.25
1103	-7.5	-75	60	82.5	67.5	41.25	26.25	45
1104	-7.5	-75	67.5	90	71.25	37.5	22.5	45
1105	-7.5	-78.75	67.5	90	71.25	33.75	15	37.5
1106	-7.5	-82.5	63.75	82.5	56.25	18.75	3.75	26.25
1107	-11.25	-82.5	67.5	78.75	48.75	15	0	18.75
1108	-18.75	-82.5	71.25	75	41.25	0	-11.25	7.5
1109	-7.5	-67.5	71.25	78.75	41.25	-3.75	-15	3.75
1110	-3.75	-63.75	71.25	82.5	41.25	-3.75	-15	3.75
1111	0	-63.75	75	90	45	0	-11.25	7.5
1112	3.75	-63.75	82.5	101.25	52.5	7.5	-3.75	18.75
1113	3.75	-86.25	86.25	105	56.25	7.5	-3.75	22.5
1114	3.75	-101.25	78.75	97.5	48.75	3.75	-7.5	15
1115	7.5	-93.75	78.75	93.75	41.25	0	-11.25	15
1116	3.75	-90	78.75	93.75	41.25	0	-11.25	18.75
1117	3.75	-90	78.75	93.75	45	3.75	-3.75	22.5
1118	-11.25	-101.25	75	86.25	37.5	0	-11.25	15
1119	-11.25	-93.75	75	93.75	37.5	3.75	-11.25	11.25
1120	3.75	-71.25	78.75	97.5	48.75	3.75	-7.5	11.25
1121	0	-71.25	82.5	93.75	45	3.75	-7.5	11.25
1122	3.75	-75	82.5	93.75	41.25	3.75	-7.5	11.25
1123	11.25	-71.25	90	105	48.75	11.25	0	22.5
1124	22.5	-75	93.75	116.25	56.25	18.75	7.5	30
1125	33.75	-78.75	86.25	116.25	60	18.75	7.5	30
1126	22.5	-78.75	82.5	105	52.5	15	3.75	26.25
1127	11.25	-82.5	78.75	108.75	48.75	11.25	3.75	26.25
1128	11.25	-86.25	75	112.5	52.5	15	3.75	30
1129	18.75	-78.75	82.5	116.25	60	22.5	11.25	33.75
1130	30	-60	82.5	116.25	60	18.75	7.5	30
1131	33.75	-52.5	78.75	112.5	60	18.75	3.75	26.25
1132	33.75	-56.25	75	108.75	52.5	15	0	22.5
1133	22.5	-63.75	75	112.5	52.5	15	0	22.5
1134	18.75	-63.75	75	116.25	56.25	15	3.75	22.5
1135	37.5	-52.5	82.5	127.5	71.25	26.25	11.25	33.75
1136	48.75	-52.5	86.25	142.5	82.5	37.5	22.5	45
1137	60	-56.25	86.25	146.25	86.25	41.25	30	48.75
1138	52.5	-63.75	78.75	138.75	78.75	37.5	30	48.75
1139	41.25	-63.75	82.5	135	78.75	37.5	26.25	52.5
1140	48.75	-56.25	82.5	138.75	78.75	41.25	30	56.25
1141	56.25	-48.75	82.5	146.25	86.25	48.75	37.5	60
1142	48.75	-52.5	78.75	146.25	90	48.75	33.75	56.25
1143	41.25	-52.5	78.75	138.75	82.5	41.25	26.25	45
1144	41.25	-37.5	78.75	138.75	82.5	37.5	26.25	41.25
1145	48.75	-22.5	78.75	142.5	90	45	30	45
1146	56.25	-33.75	75	146.25	90	45	30	48.75
1147	60	-41.25	75	157.5	101.25	56.25	41.25	56.25
1148	78.75	-26.25	90	168.75	108.75	67.5	56.25	67.5
1149	86.25	-30	90	172.5	108.75	67.5	60	75
1150	75	-45	86.25	172.5	112.5	71.25	60	75
1151	60	-45	82.5	168.75	112.5	75	60	75
1152	56.25	-52.5	82.5	172.5	116.25	75	63.75	78.75
1153	63.75	-56.25	82.5	168.75	116.25	75	60	78.75
1154	67.5	-48.75	75	168.75	112.5	75	63.75	75
1155	75	-37.5	71.25	168.75	116.25	75	60	71.25
1156	75	-22.5	78.75	168.75	116.25	78.75	60	71.25
1157	78.75	-7.5	90	172.5	120	78.75	63.75	75
1158	93.75	3.75	90	183.75	131.25	90	71.25	78.75
1159	101.25	3.75	82.5	183.75	131.25	90	71.25	78.75
1160	108.75	0	90	191.25	135	93.75	78.75	90
1161	112.5	-7.5	86.25	198.75	142.5	101.25	86.25	97.5
1162	112.5	-11.25	82.5	202.5	150	108.75	93.75	101.25
1163	105	-18.75	82.5	202.5	150	112.5	93.75	105
1164	120	-11.25	82.5	206.25	150	108.75	93.75	105
1165	127.5	-3.75	82.5	202.5	150	112.5	97.5	108.75
1166	120	-3.75	78.75	202.5	150	112.5	97.5	105
1167	108.75	0	78.75	198.75	150	112.5	93.75	101.25
1168	93.75	7.5	75	195	142.5	105	90	93.75
1169	97.5	22.5	78.75	202.5	146.25	108.75	93.75	97.5
1170	120	37.5	78.75	206.25	150	108.75	97.5	105
1171	135	37.5	82.5	210	157.5	116.25	105	108.75
1172	138.75	22.5	82.5	221.25	161.25	123.75	108.75	116.25
1173	138.75	15	86.25	225	165	127.5	116.25	127.5
1174	138.75	15	82.5	221.25	161.25	127.5	116.25	127.5
1175	146.25	22.5	75	213.75	157.5	123.75	112.5	123.75
1176	138.75	22.5	78.75	217.5	157.5	127.5	116.25	131.25
1177	138.75	18.75	75	221.25	161.25	131.25	116.25	131.25
1178	150	30	75	221.25	161.25	131.25	120	131.25
1179	150	41.25	75	213.75	157.5	127.5	116.25	127.5
1180	146.25	48.75	78.75	206.25	150	123.75	112.5	127.5
1181	146.25	52.5	82.5	206.25	150	123.75	116.25	127.5
1182	157.5	56.25	75	213.75	157.5	123.75	116.25	127.5
1183	168.75	63.75	82.5	221.25	168.75	135	127.5	138.75
1184	183.75	67.5	90	228.75	168.75	138.75	131.25	150
1185	183.75	52.5	82.5	232.5	165	138.75	131.25	150
1186	183.75	45	78.75	225	165	135	131.25	146.25
1187	180	41.25	78.75	217.5	153.75	131.25	123.75	146.25
1188	168.75	30	75	213.75	150	127.5	123.75	142.5
1189	172.5	33.75	71.25	210	146.25	127.5	123.75	146.25
1190	176.25	45	71.25	206.25	142.5	123.75	123.75	146.25
1191	176.25	52.5	71.25	202.5	138.75	120	116.25	138.75
1192	172.5	52.5	75	198.75	135	112.5	108.75	131.25
1193	176.25	60	75	202.5	135	116.25	112.5	131.25
1194	183.75	67.5	78.75	202.5	131.25	116.25	112.5	135
1195	187.5	67.5	82.5	198.75	123.75	112.5	116.25	138.75
1196	198.75	71.25	86.25	210	135	116.25	120	146.25
1197	195	60	90	221.25	146.25	123.75	127.5	150
1198	183.75	52.5	86.25	210	131.25	116.25	120	146.25
1199	187.5	63.75	82.5	198.75	123.75	108.75	112.5	142.5
1200	180	63.75	86.25	202.5	123.75	108.75	112.5	142.5
1201	176.25	56.25	90	198.75	120	105	108.75	138.75
1202	176.25	52.5	86.25	191.25	112.5	97.5	97.5	127.5
1203	161.25	52.5	82.5	183.75	101.25	86.25	90	120
1204	157.5	60	90	183.75	101.25	86.25	90	116.25
1205	157.5	60	93.75	183.75	101.25	86.25	86.25	112.5
1206	153.75	60	101.25	180	90	78.75	82.5	112.5
1207	157.5	63.75	108.75	191.25	101.25	86.25	90	116.25
1208	165	60	108.75	202.5	112.5	90	90	116.25
1209	146.25	33.75	105	195	105	82.5	86.25	108.75
1210	138.75	22.5	112.5	191.25	97.5	75	78.75	105
1211	138.75	18.75	108.75	191.25	93.75	71.25	75	101.25
1212	135	22.5	112.5	187.5	93.75	71.25	75	97.5
1213	135	26.25	112.5	187.5	93.75	67.5	71.25	97.5
1214	116.25	11.25	116.25	180	82.5	56.25	60	86.25
1215	101.25	3.75	120	172.5	75	48.75	52.5	75
1216	101.25	18.75	123.75	172.5	78.75	52.5	52.5	71.25
1217	108.75	30	123.75	172.5	75	45	45	67.5
1218	101.25	22.5	123.75	168.75	71.25	37.5	41.25	60
1219	90	11.25	127.5	168.75	71.25	41.25	41.25	56.25
1220	90	3.75	131.25	172.5	75	45	45	63.75
1221	90	-11.25	131.25	176.25	75	37.5	41.25	60
1222	78.75	-30	127.5	165	63.75	30	30	52.5
1223	63.75	-37.5	123.75	157.5	56.25	22.5	26.25	45
1224	48.75	-41.25	127.5	157.5	63.75	26.25	22.5	41.25
1225	52.5	-41.25	120	150	52.5	18.75	15	33.75
1226	52.5	-37.5	116.25	142.5	48.75	11.25	7.5	30
1227	48.75	-30	120	135	41.25	7.5	3.75	22.5
1228	30	-33.75	120	131.25	41.25	3.75	-3.75	15
1229	22.5	-33.75	120	127.5	37.5	0	-3.75	11.25
1230	18.75	-37.5	123.75	123.75	37.5	0	-3.75	11.25
1231	26.25	-41.25	127.5	131.25	41.25	7.5	0	15
1232	37.5	-37.5	131.25	138.75	48.75	11.25	3.75	18.75
1233	30	-52.5	123.75	131.25	45	7.5	0	15
1234	15	-78.75	112.5	112.5	26.25	-7.5	-15	3.75
1235	7.5	-86.25	108.75	108.75	22.5	-15	-22.5	-7.5
1236	7.5	-82.5	112.5	101.25	15	-15	-22.5	-3.75
1237	7.5	-82.5	112.5	86.25	-3.75	-18.75	-26.25	-7.5
1238	-3.75	-93.75	105	86.25	3.75	-22.5	-33.75	-15
1239	-11.25	-86.25	101.25	86.25	11.25	-26.25	-37.5	-22.5
1240	-22.5	-82.5	101.25	78.75	0	-33.75	-41.25	-26.25
1241	-15	-75	101.25	78.75	0	-30	-37.5	-26.25
1242	-11.25	-67.5	105	78.75	3.75	-30	-33.75	-22.5
1243	-11.25	-71.25	105	78.75	7.5	-26.25	-33.75	-18.75
1244	-7.5	-75	108.75	90	15	-18.75	-26.25	-11.25
1245	-7.5	-82.5	108.75	86.25	7.5	-22.5	-26.25	-11.25
1246	-11.25	-97.5	105	71.25	-7.5	-30	-33.75	-15
1247	-18.75	-101.25	101.25	67.5	-7.5	-30	-33.75	-15
1248	-30	-108.75	101.25	75	3.75	-26.25	-33.75	-15
1249	-37.5	-123.75	97.5	67.5	-3.75	-33.75	-41.25	-26.25
1250	-37.5	-120	93.75	56.25	-15	-45	-48.75	-33.75
1251	-37.5	-112.5	93.75	48.75	-18.75	-48.75	-52.5	-37.5
1252	-45	-112.5	90	45	-18.75	-48.75	-56.25	-45
1253	-48.75	-108.75	90	45	-18.75	-48.75	-56.25	-45
1254	-45	-90	97.5	48.75	-18.75	-48.75	-56.25	-45
1255	-41.25	-86.25	93.75	52.5	-18.75	-45	-56.25	-45
1256	-33.75	-97.5	93.75	56.25	-15	-41.25	-48.75	-41.25
1257	-37.5	-120	97.5	56.25	-11.25	-45	-48.75	-37.5
1258	-37.5	-127.5	93.75	56.25	-11.25	-41.25	-48.75	-37.5
1259	-26.25	-116.25	90	48.75	-15	-41.25	-48.75	-33.75
1260	-22.5	-108.75	93.75	52.5	-15	-37.5	-45	-30
1261	-18.75	-101.25	97.5	63.75	0	-30	-37.5	-26.25
1262	-22.5	-112.5	86.25	56.25	-11.25	-41.25	-48.75	-37.5
1263	-30	-116.25	86.25	45	-22.5	-48.75	-56.25	-45
1264	-33.75	-101.25	93.75	48.75	-15	-45	-52.5	-48.75
1265	-37.5	-86.25	93.75	48.75	-15	-45	-52.5	-48.75
1266	-37.5	-82.5	97.5	52.5	-15	-41.25	-52.5	-45
1267	-37.5	-90	101.25	60	-11.25	-37.5	-45	-37.5
1268	-26.25	-82.5	105	71.25	7.5	-26.25	-33.75	-26.25
1269	-30	-97.5	97.5	75	11.25	-22.5	-30	-26.25
1270	-37.5	-120	86.25	60	-3.75	-33.75	-41.25	-33.75
1271	-33.75	-120	93.75	60	-11.25	-33.75	-41.25	-30
1272	-30	-108.75	97.5	63.75	0	-26.25	-33.75	-26.25
1273	-26.25	-105	93.75	67.5	3.75	-22.5	-33.75	-30
1274	-30	-105	90	60	0	-30	-41.25	-33.75
1275	-30	-105	86.25	56.25	-3.75	-37.5	-45	-41.25
1276	-26.25	-97.5	86.25	56.25	-3.75	-33.75	-45	-45
1277	-30	-82.5	90	60	0	-30	-41.25	-37.5
1278	-33.75	-82.5	97.5	67.5	7.5	-22.5	-37.5	-33.75
1279	-33.75	-86.25	101.25	71.25	11.25	-22.5	-33.75	-30
1280	-30	-90	101.25	78.75	18.75	-15	-26.25	-22.5
1281	-26.25	-97.5	97.5	82.5	18.75	-11.25	-18.75	-15
1282	-22.5	-105	97.5	78.75	15	-15	-22.5	-15
1283	-15	-101.25	93.75	75	15	-15	-26.25	-15
1284	-22.5	-101.25	90	71.25	15	-15	-26.25	-18.75
1285	-33.75	-101.25	97.5	75	15	-15	-26.25	-18.75
1286	-37.5	-105	93.75	71.25	7.5	-18.75	-30	-22.5
1287	-41.25	-105	86.25	56.25	0	-26.25	-33.75	-33.75
1288	-45	-101.25	86.25	56.25	0	-30	-37.5	-37.5
1289	-37.5	-86.25	86.25	60	3.75	-26.25	-37.5	-37.5
1290	-33.75	-78.75	90	63.75	3.75	-26.25	-37.5	-37.5
1291	-26.25	-75	90	67.5	3.75	-22.5	-33.75	-33.75
1292	-11.25	-67.5	93.75	75	15	-15	-22.5	-22.5
1293	-7.5	-75	97.5	86.25	30	-7.5	-15	-11.25
1294	-15	-90	90	78.75	18.75	-11.25	-18.75	-15
1295	-18.75	-97.5	86.25	71.25	15	-15	-22.5	-18.75
1296	-18.75	-101.25	86.25	75	15	-15	-22.5	-15
1297	-15	-93.75	90	71.25	15	-15	-22.5	-15
1298	-11.25	-86.25	82.5	63.75	11.25	-18.75	-26.25	-18.75
1299	-18.75	-86.25	82.5	60	3.75	-22.5	-30	-22.5
1300	-30	-86.25	82.5	56.25	0	-26.25	-33.75	-30
1301	-33.75	-82.5	82.5	56.25	3.75	-26.25	-33.75	-33.75
1302	-22.5	-75	82.5	60	7.5	-26.25	-33.75	-30
1303	-22.5	-82.5	90	60	3.75	-22.5	-30	-22.5
1304	-26.25	-97.5	90	67.5	11.25	-18.75	-22.5	-18.75
1305	-11.25	-93.75	90	78.75	30	-7.5	-15	-11.25
1306	0	-90	78.75	60	7.5	-15	-22.5	-15
1307	-3.75	-90	75	56.25	0	-15	-18.75	-11.25
1308	0	-82.5	82.5	63.75	11.25	-11.25	-15	-7.5
1309	0	-67.5	82.5	56.25	11.25	-11.25	-18.75	-7.5
1310	-7.5	-67.5	75	52.5	3.75	-18.75	-22.5	-15
1311	-22.5	-97.5	67.5	41.25	-7.5	-30	-37.5	-33.75
1312	-33.75	-101.25	67.5	37.5	-7.5	-33.75	-45	-37.5
1313	-26.25	-78.75	75	48.75	-3.75	-30	-41.25	-30
1314	-26.25	-71.25	75	48.75	0	-26.25	-37.5	-26.25
1315	-26.25	-71.25	75	48.75	3.75	-26.25	-30	-22.5
1316	-15	-71.25	82.5	56.25	11.25	-15	-22.5	-15
1317	-3.75	-82.5	82.5	63.75	11.25	-15	-22.5	-11.25
1318	-15	-97.5	71.25	48.75	3.75	-22.5	-26.25	-15
1319	-22.5	-97.5	71.25	41.25	-3.75	-22.5	-26.25	-11.25
1320	-11.25	-82.5	71.25	45	-3.75	-18.75	-26.25	-11.25
1321	-3.75	-75	71.25	48.75	3.75	-18.75	-26.25	-11.25
1322	-18.75	-82.5	67.5	45	3.75	-22.5	-30	-18.75
1323	-26.25	-86.25	63.75	30	-11.25	-37.5	-41.25	-30
1324	-22.5	-78.75	63.75	33.75	-7.5	-33.75	-37.5	-26.25
1325	-22.5	-75	71.25	37.5	-3.75	-26.25	-33.75	-22.5
1326	-30	-82.5	67.5	33.75	-7.5	-33.75	-37.5	-30
1327	-22.5	-75	63.75	37.5	-7.5	-37.5	-41.25	-30
1328	-7.5	-67.5	67.5	41.25	-3.75	-30	-33.75	-22.5
1329	-11.25	-86.25	67.5	45	-3.75	-26.25	-33.75	-22.5
1330	-18.75	-97.5	63.75	41.25	-7.5	-30	-37.5	-22.5
1331	-18.75	-97.5	52.5	30	-15	-37.5	-41.25	-26.25
1332	-22.5	-97.5	52.5	22.5	-15	-37.5	-41.25	-26.25
1333	-22.5	-97.5	56.25	18.75	-22.5	-37.5	-37.5	-22.5
1334	-33.75	-108.75	56.25	11.25	-30	-45	-45	-26.25
1335	-37.5	-108.75	52.5	11.25	-26.25	-45	-48.75	-37.5
1336	-33.75	-105	52.5	11.25	-26.25	-45	-48.75	-37.5
1337	-26.25	-90	56.25	15	-22.5	-41.25	-45	-30
1338	-18.75	-75	56.25	18.75	-18.75	-37.5	-41.25	-30
1339	-22.5	-75	56.25	18.75	-22.5	-41.25	-45	-33.75
1340	-18.75	-67.5	67.5	26.25	-18.75	-33.75	-37.5	-22.5
1341	-11.25	-71.25	67.5	37.5	-11.25	-30	-30	-15
1342	-11.25	-90	52.5	22.5	-18.75	-37.5	-41.25	-26.25
1343	-18.75	-97.5	48.75	15	-26.25	-41.25	-45	-30
1344	-18.75	-93.75	45	11.25	-30	-45	-52.5	-33.75
1345	-26.25	-97.5	48.75	7.5	-33.75	-48.75	-52.5	-37.5
1346	-30	-101.25	48.75	7.5	-33.75	-48.75	-52.5	-37.5
1347	-30	-108.75	41.25	0	-37.5	-52.5	-56.25	-41.25
1348	-30	-105	41.25	-3.75	-45	-56.25	-60	-48.75
1349	-37.5	-97.5	45	0	-37.5	-52.5	-52.5	-45
1350	-33.75	-86.25	52.5	3.75	-30	-45	-48.75	-37.5
1351	-26.25	-82.5	52.5	3.75	-33.75	-48.75	-48.75	-37.5
1352	-18.75	-82.5	56.25	7.5	-37.5	-45	-45	-30
1353	-11.25	-86.25	56.25	15	-30	-41.25	-37.5	-22.5
1354	-15	-97.5	48.75	15	-22.5	-41.25	-37.5	-26.25
1355	-22.5	-105	48.75	7.5	-33.75	-45	-41.25	-26.25
1356	-15	-97.5	41.25	-7.5	-45	-52.5	-48.75	-30
1357	-22.5	-97.5	41.25	-3.75	-41.25	-52.5	-52.5	-33.75
1358	-37.5	-112.5	37.5	-3.75	-37.5	-56.25	-52.5	-37.5
1359	-37.5	-116.25	33.75	-11.25	-45	-60	-60	-45
1360	-33.75	-108.75	33.75	-15	-52.5	-63.75	-67.5	-52.5
1361	-33.75	-97.5	37.5	-11.25	-48.75	-63.75	-63.75	-52.5
1362	-33.75	-93.75	41.25	-3.75	-41.25	-56.25	-56.25	-45
1363	-26.25	-90	45	0	-41.25	-52.5	-56.25	-45
1364	-22.5	-86.25	48.75	3.75	-37.5	-48.75	-48.75	-37.5
1365	-15	-86.25	48.75	11.25	-33.75	-45	-45	-30
1366	-15	-93.75	48.75	7.5	-33.75	-45	-45	-30
1367	-7.5	-93.75	45	0	-37.5	-48.75	-48.75	-33.75
1368	-18.75	-105	37.5	-3.75	-41.25	-52.5	-52.5	-33.75
1369	-30	-108.75	41.25	-3.75	-37.5	-48.75	-48.75	-33.75
1370	-37.5	-112.5	37.5	-7.5	-45	-52.5	-52.5	-37.5
1371	-41.25	-108.75	33.75	-15	-52.5	-56.25	-56.25	-41.25
1372	-37.5	-93.75	30	-26.25	-56.25	-60	-60	-45
1373	-37.5	-93.75	30	-30	-60	-67.5	-67.5	-52.5
1374	-33.75	-93.75	41.25	-22.5	-63.75	-71.25	-67.5	-52.5
1375	-30	-82.5	41.25	-11.25	-52.5	-63.75	-63.75	-52.5
1376	-18.75	-75	45	3.75	-30	-45	-48.75	-37.5
1377	-15	-86.25	48.75	7.5	-33.75	-48.75	-48.75	-33.75
1378	-22.5	-90	52.5	7.5	-33.75	-48.75	-48.75	-30
1379	-15	-90	56.25	7.5	-30	-45	-45	-26.25
1380	-15	-86.25	60	11.25	-26.25	-37.5	-41.25	-22.5
1381	-18.75	-75	67.5	22.5	-18.75	-33.75	-37.5	-15
1382	-22.5	-63.75	71.25	22.5	-15	-33.75	-37.5	-18.75
1383	-30	-56.25	75	18.75	-18.75	-33.75	-37.5	-22.5
1384	-41.25	-56.25	75	11.25	-26.25	-41.25	-45	-30
1385	-48.75	-56.25	78.75	11.25	-30	-45	-48.75	-33.75
1386	-45	-56.25	82.5	15	-30	-45	-48.75	-33.75
1387	-30	-41.25	90	30	-15	-33.75	-37.5	-26.25
1388	-7.5	-15	101.25	48.75	3.75	-22.5	-26.25	-15
1389	0	-30	105	56.25	7.5	-15	-18.75	-7.5
1390	3.75	-48.75	97.5	48.75	0	-22.5	-26.25	-15
1391	0	-52.5	90	41.25	-3.75	-26.25	-26.25	-15
1392	-3.75	-60	93.75	41.25	-3.75	-26.25	-30	-15
1393	-7.5	-56.25	101.25	45	0	-18.75	-26.25	-11.25
1394	-11.25	-45	108.75	48.75	7.5	-15	-22.5	-7.5
1395	-18.75	-37.5	112.5	52.5	7.5	-11.25	-18.75	-7.5
1396	-18.75	-15	116.25	56.25	11.25	-7.5	-15	-3.75
1397	-15	7.5	120	56.25	15	-3.75	-11.25	0
1398	-15	7.5	112.5	52.5	15	-3.75	-11.25	3.75
1399	-11.25	7.5	105	48.75	15	-3.75	-7.5	7.5
1400	11.25	18.75	97.5	60	22.5	7.5	3.75	18.75
1401	30	22.5	90	67.5	33.75	18.75	15	33.75
1402	22.5	-3.75	67.5	56.25	26.25	15	11.25	33.75
1403	26.25	-15	45	37.5	11.25	3.75	0	22.5
1404	37.5	-3.75	48.75	37.5	3.75	3.75	0	26.25
1405	41.25	-3.75	52.5	37.5	7.5	0	0	26.25
1406	33.75	-11.25	37.5	26.25	0	-3.75	-7.5	18.75
1407	30	-15	26.25	11.25	-11.25	-15	-18.75	7.5
1408	18.75	-22.5	22.5	3.75	-18.75	-22.5	-26.25	0
1409	22.5	-22.5	11.25	-3.75	-26.25	-30	-33.75	-11.25
1410	37.5	-22.5	7.5	-3.75	-22.5	-30	-33.75	-7.5
1411	41.25	-30	15	0	-22.5	-26.25	-30	-3.75
1412	45	-30	26.25	7.5	-15	-22.5	-22.5	0
1413	41.25	-37.5	26.25	11.25	-15	-22.5	-22.5	3.75
1414	37.5	-48.75	22.5	7.5	-18.75	-26.25	-26.25	0
1415	30	-60	26.25	7.5	-18.75	-26.25	-26.25	0
1416	18.75	-71.25	30	0	-26.25	-26.25	-30	-3.75
1417	11.25	-75	26.25	3.75	-22.5	-26.25	-30	-3.75
1418	11.25	-63.75	26.25	0	-26.25	-26.25	-30	-3.75
1419	0	-60	30	-11.25	-37.5	-37.5	-41.25	-15
1420	-18.75	-60	30	-15	-41.25	-45	-48.75	-26.25
1421	-18.75	-56.25	30	-11.25	-33.75	-41.25	-48.75	-26.25
1422	-22.5	-63.75	33.75	-11.25	-33.75	-45	-52.5	-26.25
1423	-30	-75	33.75	-11.25	-37.5	-45	-56.25	-30
1424	-18.75	-78.75	30	-11.25	-41.25	-48.75	-56.25	-30
1425	-15	-90	30	-11.25	-41.25	-48.75	-52.5	-26.25
1426	-15	-97.5	26.25	-18.75	-45	-52.5	-56.25	-30
1427	-22.5	-105	26.25	-22.5	-48.75	-52.5	-56.25	-30
1428	-26.25	-112.5	22.5	-26.25	-56.25	-60	-67.5	-37.5
1429	-30	-127.5	15	-37.5	-67.5	-71.25	-78.75	-48.75
1430	-41.25	-135	11.25	-45	-71.25	-75	-82.5	-52.5
1431	-52.5	-131.25	15	-45	-71.25	-75	-82.5	-52.5
1432	-52.5	-123.75	11.25	-48.75	-71.25	-78.75	-86.25	-63.75
1433	-45	-112.5	15	-45	-71.25	-78.75	-90	-67.5
1434	-37.5	-105	15	-41.25	-67.5	-75	-86.25	-63.75
1435	-33.75	-101.25	11.25	-45	-75	-78.75	-86.25	-63.75
1436	-30	-101.25	18.75	-41.25	-71.25	-71.25	-78.75	-52.5
1437	-26.25	-108.75	18.75	-30	-60	-63.75	-71.25	-45
1438	-30	-120	18.75	-30	-56.25	-63.75	-71.25	-45
1439	-41.25	-131.25	15	-37.5	-63.75	-71.25	-78.75	-52.5
1440	-41.25	-127.5	15	-41.25	-67.5	-71.25	-78.75	-48.75
1441	-33.75	-120	18.75	-33.75	-60	-67.5	-71.25	-45
1442	-37.5	-123.75	11.25	-33.75	-60	-67.5	-75	-52.5
1443	-45	-123.75	11.25	-41.25	-67.5	-75	-82.5	-60
1444	-52.5	-116.25	11.25	-45	-71.25	-78.75	-86.25	-63.75
1445	-52.5	-108.75	15	-41.25	-67.5	-78.75	-86.25	-63.75
1446	-48.75	-105	15	-41.25	-63.75	-75	-82.5	-63.75
1447	-45	-101.25	15	-41.25	-63.75	-75	-82.5	-63.75
1448	-37.5	-101.25	18.75	-33.75	-60	-71.25	-75	-56.25
1449	-26.25	-108.75	18.75	-30	-56.25	-67.5	-71.25	-48.75
1450	-33.75	-127.5	15	-30	-56.25	-67.5	-71.25	-52.5
1451	-33.75	-135	15	-33.75	-63.75	-75	-78.75	-60
1452	-30	-146.25	26.25	-22.5	-63.75	-78.75	-86.25	-67.5
1453	-30	-161.25	52.5	0	-60	-86.25	-105	-86.25
1454	-26.25	-172.5	105	48.75	-52.5	-101.25	-127.5	-112.5
1455	-30	-195	157.5	90	-48.75	-123.75	-157.5	-150
1456	-30	-213.75	206.25	120	-56.25	-153.75	-191.25	-183.75
1457	-30	-225	247.5	161.25	-56.25	-168.75	-213.75	-210
1458	-11.25	-206.25	288.75	228.75	-18.75	-150	-202.5	-198.75
1459	22.5	-153.75	337.5	307.5	48.75	-101.25	-157.5	-161.25
1460	60	-93.75	386.25	397.5	123.75	-37.5	-101.25	-105
1461	112.5	-45	412.5	472.5	195	26.25	-41.25	-48.75
1462	157.5	0	420	517.5	243.75	86.25	18.75	7.5
1463	195	63.75	435	555	296.25	153.75	90	71.25
1464	251.25	142.5	446.25	622.5	382.5	243.75	176.25	153.75
1465	322.5	240	431.25	693.75	487.5	356.25	292.5	262.5
1466	382.5	360	393.75	723.75	573.75	472.5	408.75	378.75
1467	435	498.75	341.25	720	648.75	585	532.5	498.75
1468	487.5	645	270	712.5	742.5	723.75	678.75	637.5
1469	536.25	821.25	243.75	757.5	873.75	888.75	847.5	795
1470	555	1031.25	228.75	791.25	1001.25	1061.25	1031.25	978.75
1471	588.75	1271.25	116.25	708.75	1072.5	1222.5	1230	1188.75
1472	637.5	1485	-22.5	592.5	1128.75	1387.5	1436.25	1406.25
1473	682.5	1575	-161.25	446.25	1155	1500	1575	1548.75
1474	682.5	1608.75	-311.25	258.75	1151.25	1582.5	1676.25	1646.25
1475	618.75	1623.75	-382.5	172.5	1188.75	1668.75	1762.5	1713.75
1476	528.75	1563.75	-360	187.5	1260	1740	1796.25	1713.75
1477	446.25	1488.75	-352.5	168.75	1301.25	1773.75	1800	1680
1478	352.5	1417.5	-397.5	75	1271.25	1743.75	1751.25	1616.25
1479	255	1290	-461.25	-63.75	1143.75	1597.5	1601.25	1473.75
1480	135	1087.5	-453.75	-168.75	956.25	1350	1346.25	1241.25
1481	15	873.75	-412.5	-258.75	723.75	1050	1061.25	990
1482	-67.5	682.5	-420	-412.5	420	712.5	765	753.75
1483	-135	513.75	-453.75	-588.75	105	386.25	483.75	536.25
1484	-195	363.75	-457.5	-690	-105	161.25	277.5	363.75
1485	-210	240	-423.75	-667.5	-165	52.5	150	232.5
1486	-221.25	105	-405	-607.5	-168.75	0	52.5	120
1487	-213.75	22.5	-397.5	-551.25	-150	-18.75	11.25	60
1488	-183.75	15	-375	-476.25	-105	7.5	26.25	60
1489	-157.5	18.75	-337.5	-397.5	-71.25	33.75	45	71.25
1490	-146.25	0	-307.5	-356.25	-78.75	18.75	33.75	60
1491	-127.5	-15	-273.75	-322.5	-97.5	-11.25	11.25	33.75
1492	-108.75	-7.5	-232.5	-262.5	-82.5	-7.5	3.75	30
1493	-82.5	30	-183.75	-187.5	-37.5	18.75	22.5	45
1494	-60	52.5	-138.75	-112.5	11.25	48.75	48.75	63.75
1495	-37.5	48.75	-90	-45	56.25	75	71.25	82.5
1496	-11.25	48.75	-48.75	7.5	86.25	93.75	82.5	90
1497	11.25	48.75	-11.25	48.75	108.75	105	86.25	93.75
1498	3.75	18.75	7.5	60	105	97.5	78.75	86.25
1499	-7.5	-7.5	18.75	63.75	97.5	86.25	63.75	71.25
1500	0	-15	26.25	67.5	93.75	78.75	52.5	60
1501	7.5	-15	33.75	71.25	90	71.25	48.75	52.5
1502	7.5	-22.5	37.5	67.5	86.25	63.75	41.25	45
1503	-3.75	-30	33.75	60	75	52.5	26.25	30
1504	-7.5	-26.25	33.75	56.25	56.25	37.5	11.25	18.75
1505	-7.5	-26.25	37.5	56.25	48.75	30	3.75	11.25
1506	-7.5	-30	45	67.5	60	30	3.75	11.25
1507	-11.25	-41.25	45	63.75	52.5	18.75	-3.75	0
1508	-3.75	-41.25	48.75	67.5	45	15	-7.5	3.75
1509	0	-45	48.75	71.25	45	18.75	-3.75	7.5
1510	0	-63.75	45	71.25	45	15	-7.5	3.75
1511	3.75	-67.5	45	71.25	41.25	11.25	-11.25	3.75
1512	0	-60	45	63.75	37.5	11.25	-11.25	3.75
1513	-7.5	-56.25	48.75	67.5	41.25	11.25	-11.25	3.75
1514	-11.25	-67.5	48.75	71.25	33.75	11.25	-11.25	3.75
1515	0	-67.5	45	71.25	37.5	11.25	-11.25	0
1516	0	-63.75	45	67.5	37.5	7.5	-11.25	-3.75
1517	3.75	-52.5	52.5	67.5	33.75	7.5	-11.25	-3.75
1518	7.5	-45	56.25	71.25	33.75	11.25	-11.25	0
1519	7.5	-48.75	56.25	78.75	45	11.25	-11.25	0
1520	18.75	-48.75	60	93.75	52.5	18.75	-3.75	7.5
1521	26.25	-48.75	63.75	97.5	56.25	22.5	3.75	15
1522	22.5	-56.25	56.25	93.75	52.5	18.75	-3.75	15
1523	18.75	-60	52.5	86.25	45	18.75	-7.5	11.25
1524	22.5	-60	56.25	82.5	41.25	18.75	-3.75	15
1525	26.25	-56.25	56.25	93.75	52.5	26.25	3.75	18.75
1526	18.75	-56.25	60	97.5	60	30	3.75	18.75
1527	22.5	-48.75	56.25	90	52.5	26.25	-3.75	7.5
1528	22.5	-45	45	82.5	45	18.75	-11.25	0
1529	15	-48.75	45	78.75	41.25	18.75	-11.25	0
1530	15	-48.75	48.75	90	48.75	18.75	-7.5	3.75
1531	22.5	-41.25	56.25	101.25	60	30	0	11.25
1532	37.5	-33.75	67.5	105	63.75	37.5	11.25	22.5
1533	45	-37.5	67.5	116.25	71.25	45	18.75	33.75
1534	41.25	-48.75	56.25	116.25	75	45	18.75	30
1535	41.25	-52.5	52.5	112.5	75	45	18.75	30
1536	45	-41.25	60	120	78.75	52.5	30	41.25
1537	56.25	-26.25	63.75	123.75	86.25	60	33.75	48.75
1538	52.5	-33.75	60	120	82.5	56.25	33.75	45
1539	48.75	-45	52.5	112.5	75	48.75	26.25	33.75
1540	37.5	-45	56.25	112.5	75	45	22.5	30
1541	45	-30	56.25	116.25	75	48.75	26.25	33.75
1542	56.25	-18.75	60	123.75	82.5	52.5	30	37.5
1543	60	-18.75	63.75	131.25	90	60	33.75	41.25
1544	63.75	-18.75	60	135	93.75	63.75	37.5	45
1545	78.75	-11.25	67.5	146.25	105	75	48.75	56.25
1546	75	-22.5	63.75	150	108.75	75	52.5	60
1547	67.5	-33.75	56.25	138.75	97.5	71.25	45	56.25
1548	63.75	-37.5	56.25	138.75	101.25	71.25	48.75	60
1549	75	-26.25	60	150	108.75	78.75	56.25	63.75
1550	78.75	-11.25	63.75	153.75	112.5	82.5	56.25	67.5
1551	75	-7.5	60	146.25	105	78.75	48.75	60
1552	63.75	-18.75	52.5	138.75	101.25	75	45	52.5
1553	63.75	-18.75	56.25	142.5	105	75	45	48.75
1554	71.25	-7.5	63.75	153.75	112.5	82.5	56.25	60
1555	86.25	7.5	63.75	157.5	120	90	60	63.75
1556	101.25	18.75	63.75	168.75	127.5	101.25	67.5	75
1557	112.5	18.75	63.75	180	138.75	108.75	78.75	82.5
1558	105	7.5	56.25	172.5	131.25	97.5	71.25	78.75
1559	105	15	56.25	165	127.5	101.25	75	86.25
1560	105	15	60	168.75	131.25	105	82.5	90
1561	101.25	7.5	67.5	180	142.5	112.5	86.25	97.5
1562	101.25	7.5	67.5	183.75	146.25	112.5	90	97.5
1563	93.75	7.5	60	180	146.25	112.5	86.25	93.75
1564	93.75	11.25	56.25	172.5	138.75	108.75	82.5	90
1565	112.5	33.75	56.25	180	142.5	112.5	82.5	90
1566	123.75	48.75	63.75	183.75	142.5	120	93.75	97.5
1567	127.5	52.5	67.5	183.75	138.75	120	97.5	101.25
1568	123.75	48.75	67.5	198.75	157.5	127.5	101.25	105
1569	127.5	41.25	63.75	206.25	168.75	135	108.75	112.5
1570	138.75	33.75	63.75	206.25	165	135	108.75	116.25
1571	135	26.25	56.25	198.75	157.5	131.25	108.75	112.5
1572	135	26.25	56.25	195	153.75	131.25	108.75	116.25
1573	146.25	37.5	60	198.75	157.5	135	112.5	120
1574	150	48.75	56.25	206.25	165	142.5	116.25	127.5
1575	157.5	48.75	48.75	198.75	153.75	135	108.75	120
1576	157.5	48.75	52.5	195	150	127.5	105	112.5
1577	146.25	52.5	56.25	195	150	131.25	105	112.5
1578	135	56.25	56.25	191.25	142.5	127.5	105	112.5
1579	142.5	63.75	60	202.5	157.5	135	112.5	120
1580	161.25	71.25	63.75	213.75	168.75	142.5	120	131.25
1581	172.5	75	63.75	213.75	165	142.5	123.75	138.75
1582	172.5	63.75	56.25	210	161.25	142.5	123.75	135
1583	180	60	56.25	210	161.25	142.5	127.5	138.75
1584	183.75	63.75	56.25	202.5	153.75	138.75	123.75	138.75
1585	180	60	52.5	202.5	153.75	138.75	120	138.75
1586	176.25	60	52.5	198.75	153.75	138.75	120	138.75
1587	183.75	71.25	56.25	198.75	150	138.75	123.75	138.75
1588	183.75	78.75	56.25	195	150	138.75	120	138.75
1589	176.25	75	56.25	195	142.5	131.25	116.25	135
1590	183.75	86.25	60	195	138.75	131.25	116.25	135
1591	198.75	97.5	56.25	191.25	138.75	127.5	116.25	135
1592	198.75	97.5	56.25	195	142.5	135	120	142.5
1593	206.25	97.5	63.75	206.25	146.25	138.75	127.5	150
1594	198.75	78.75	63.75	202.5	142.5	131.25	123.75	146.25
1595	187.5	67.5	63.75	191.25	135	123.75	116.25	142.5
1596	180	67.5	60	183.75	123.75	120	112.5	142.5
1597	195	82.5	67.5	191.25	127.5	123.75	116.25	146.25
1598	198.75	86.25	63.75	187.5	127.5	120	112.5	142.5
1599	187.5	75	56.25	176.25	116.25	108.75	101.25	131.25
1600	180	78.75	60	172.5	108.75	101.25	97.5	123.75
1601	180	90	67.5	176.25	108.75	101.25	97.5	120
1602	180	90	71.25	176.25	108.75	97.5	93.75	123.75
1603	176.25	86.25	75	176.25	105	97.5	93.75	123.75
1604	176.25	86.25	78.75	183.75	108.75	101.25	97.5	127.5
1605	183.75	86.25	86.25	191.25	112.5	105	101.25	131.25
1606	180	75	90	191.25	116.25	105	101.25	135
1607	172.5	63.75	86.25	180	101.25	93.75	90	123.75
1608	168.75	63.75	90	172.5	93.75	90	86.25	120
1609	161.25	71.25	90	172.5	93.75	90	82.5	120
1610	138.75	56.25	93.75	176.25	101.25	90	78.75	112.5
1611	131.25	41.25	93.75	168.75	93.75	82.5	67.5	101.25
1612	127.5	41.25	90	153.75	71.25	60	52.5	90
1613	123.75	48.75	93.75	150	71.25	56.25	52.5	82.5
1614	116.25	56.25	105	161.25	82.5	63.75	52.5	78.75
1615	108.75	52.5	108.75	165	78.75	60	48.75	78.75
1616	108.75	41.25	112.5	165	82.5	60	48.75	78.75
1617	112.5	37.5	120	172.5	86.25	63.75	56.25	86.25
1618	108.75	26.25	116.25	165	75	56.25	48.75	78.75
1619	93.75	11.25	116.25	157.5	71.25	48.75	41.25	71.25
1620	86.25	7.5	112.5	150	71.25	45	33.75	63.75
1621	82.5	7.5	112.5	150	71.25	45	30	60
1622	78.75	7.5	112.5	146.25	67.5	41.25	26.25	56.25
1623	63.75	-7.5	112.5	135	52.5	26.25	15	45
1624	52.5	-22.5	112.5	131.25	52.5	26.25	11.25	37.5
1625	48.75	-11.25	112.5	123.75	48.75	22.5	7.5	33.75
1626	45	3.75	116.25	123.75	48.75	22.5	7.5	33.75
1627	41.25	-3.75	108.75	123.75	45	18.75	0	26.25
1628	48.75	-7.5	112.5	123.75	48.75	18.75	0	22.5
1629	60	-11.25	116.25	123.75	52.5	18.75	3.75	30
1630	48.75	-33.75	116.25	120	45	18.75	3.75	33.75
1631	37.5	-45	108.75	120	45	18.75	-3.75	26.25
1632	33.75	-48.75	112.5	120	48.75	11.25	-7.5	18.75
1633	37.5	-48.75	108.75	108.75	33.75	7.5	-11.25	11.25
1634	26.25	-52.5	105	97.5	26.25	3.75	-15	11.25
1635	11.25	-48.75	101.25	93.75	26.25	0	-18.75	3.75
1636	7.5	-45	101.25	82.5	22.5	-7.5	-26.25	-3.75
1637	3.75	-45	97.5	82.5	18.75	-11.25	-30	-11.25
1638	3.75	-45	101.25	86.25	18.75	-7.5	-26.25	-7.5
1639	3.75	-52.5	105	82.5	22.5	-7.5	-26.25	-7.5
1640	7.5	-48.75	105	86.25	22.5	-7.5	-26.25	-7.5
1641	15	-45	105	90	22.5	-11.25	-26.25	-3.75
1642	11.25	-60	97.5	82.5	15	-15	-30	-3.75
1643	3.75	-75	93.75	71.25	11.25	-18.75	-33.75	-11.25
1644	-7.5	-78.75	93.75	67.5	11.25	-18.75	-37.5	-11.25
1645	-15	-78.75	93.75	67.5	11.25	-18.75	-37.5	-11.25
1646	-11.25	-82.5	93.75	60	3.75	-22.5	-41.25	-15
1647	-18.75	-93.75	86.25	48.75	-3.75	-30	-48.75	-22.5
1648	-30	-86.25	86.25	52.5	-3.75	-30	-48.75	-26.25
1649	-26.25	-67.5	82.5	45	-7.5	-33.75	-52.5	-30
1650	-22.5	-71.25	86.25	41.25	-15	-37.5	-56.25	-33.75
1651	-26.25	-86.25	86.25	41.25	-18.75	-41.25	-60	-37.5
1652	-15	-82.5	90	45	-15	-37.5	-52.5	-30
1653	-3.75	-71.25	90	52.5	-7.5	-30	-48.75	-22.5
1654	-11.25	-75	86.25	56.25	0	-30	-48.75	-22.5
1655	-18.75	-97.5	86.25	48.75	-3.75	-33.75	-52.5	-26.25
1656	-26.25	-108.75	82.5	41.25	-11.25	-41.25	-56.25	-33.75
1657	-30	-108.75	82.5	41.25	-15	-41.25	-60	-33.75
1658	-41.25	-108.75	82.5	41.25	-15	-37.5	-56.25	-30
1659	-56.25	-120	71.25	22.5	-30	-48.75	-63.75	-41.25
1660	-52.5	-123.75	71.25	26.25	-26.25	-45	-63.75	-41.25
1661	-30	-101.25	78.75	41.25	-7.5	-33.75	-52.5	-37.5
1662	-18.75	-71.25	86.25	48.75	0	-26.25	-45	-30
1663	-18.75	-67.5	93.75	52.5	3.75	-22.5	-45	-26.25
1664	-18.75	-75	93.75	56.25	11.25	-18.75	-37.5	-18.75
1665	-11.25	-78.75	93.75	63.75	15	-11.25	-33.75	-11.25
1666	-11.25	-90	90	67.5	15	-11.25	-30	-11.25
1667	-18.75	-101.25	86.25	60	7.5	-15	-33.75	-15
1668	-22.5	-101.25	82.5	56.25	7.5	-15	-37.5	-15
1669	-15	-93.75	82.5	52.5	3.75	-15	-37.5	-15
1670	-26.25	-101.25	82.5	48.75	0	-18.75	-37.5	-18.75
1671	-33.75	-105	78.75	52.5	3.75	-15	-41.25	-22.5
1672	-26.25	-93.75	78.75	48.75	3.75	-22.5	-45	-26.25
1673	-22.5	-78.75	78.75	48.75	0	-26.25	-45	-30
1674	-18.75	-63.75	86.25	60	11.25	-15	-37.5	-22.5
1675	-18.75	-63.75	86.25	63.75	15	-11.25	-30	-18.75
1676	-7.5	-63.75	90	63.75	15	-11.25	-30	-15
1677	0	-71.25	93.75	67.5	15	-7.5	-26.25	-7.5
1678	-7.5	-90	86.25	71.25	18.75	-7.5	-26.25	-7.5
1679	-11.25	-97.5	82.5	63.75	15	-11.25	-30	-15
1680	-11.25	-93.75	78.75	60	11.25	-11.25	-30	-11.25
1681	-11.25	-86.25	82.5	60	7.5	-7.5	-26.25	-7.5
1682	-15	-90	86.25	63.75	15	-3.75	-22.5	-7.5
1683	-11.25	-82.5	82.5	63.75	18.75	-7.5	-26.25	-15
1684	-15	-75	71.25	52.5	3.75	-18.75	-37.5	-26.25
1685	-30	-75	75	45	-3.75	-22.5	-41.25	-30
1686	-30	-71.25	75	48.75	0	-22.5	-41.25	-33.75
1687	-22.5	-67.5	75	56.25	7.5	-18.75	-37.5	-30
1688	-18.75	-67.5	78.75	63.75	15	-11.25	-30	-22.5
1689	-3.75	-63.75	86.25	75	26.25	-3.75	-22.5	-15
1690	-11.25	-75	86.25	78.75	30	0	-18.75	-7.5
1691	-18.75	-82.5	82.5	71.25	22.5	-3.75	-18.75	-7.5
1692	-15	-90	82.5	67.5	18.75	-3.75	-18.75	-7.5
1693	-15	-90	82.5	67.5	18.75	-7.5	-22.5	-11.25
1694	-15	-78.75	82.5	67.5	22.5	-3.75	-22.5	-11.25
1695	-11.25	-82.5	78.75	63.75	15	-7.5	-26.25	-15
1696	-15	-90	71.25	52.5	7.5	-15	-33.75	-22.5
1697	-33.75	-82.5	75	52.5	7.5	-15	-33.75	-26.25
1698	-22.5	-60	78.75	60	15	-7.5	-26.25	-18.75
1699	-18.75	-63.75	75	60	15	-11.25	-26.25	-22.5
1700	-11.25	-67.5	75	60	15	-7.5	-26.25	-18.75
1701	3.75	-63.75	82.5	71.25	22.5	0	-18.75	-3.75
1702	0	-71.25	82.5	67.5	26.25	3.75	-11.25	0
1703	-7.5	-75	78.75	60	15	-3.75	-15	-3.75
1704	-7.5	-75	75	56.25	11.25	-7.5	-18.75	-3.75
1705	-11.25	-78.75	71.25	56.25	15	-3.75	-18.75	-7.5
1706	-11.25	-75	71.25	60	18.75	0	-15	-3.75
1707	-15	-78.75	67.5	48.75	7.5	-7.5	-22.5	-11.25
1708	-30	-90	60	33.75	-7.5	-22.5	-37.5	-26.25
1709	-33.75	-82.5	63.75	37.5	-3.75	-18.75	-37.5	-26.25
1710	-30	-71.25	67.5	41.25	3.75	-18.75	-37.5	-26.25
1711	-18.75	-67.5	63.75	37.5	-3.75	-18.75	-37.5	-26.25
1712	-11.25	-63.75	60	41.25	-3.75	-18.75	-37.5	-22.5
1713	-7.5	-63.75	67.5	52.5	11.25	-7.5	-22.5	-11.25
1714	-15	-82.5	67.5	52.5	7.5	-7.5	-22.5	-11.25
1715	-22.5	-93.75	67.5	41.25	-3.75	-15	-30	-15
1716	-15	-82.5	63.75	37.5	0	-18.75	-30	-15
1717	-3.75	-71.25	67.5	48.75	11.25	-7.5	-22.5	-7.5
1718	-3.75	-71.25	71.25	52.5	7.5	-3.75	-22.5	-3.75
1719	-15	-75	63.75	41.25	0	-11.25	-30	-18.75
1720	-22.5	-75	56.25	30	-7.5	-18.75	-37.5	-26.25
1721	-26.25	-75	48.75	22.5	-15	-30	-45	-33.75
1722	-18.75	-67.5	52.5	22.5	-18.75	-30	-45	-33.75
1723	-18.75	-67.5	56.25	26.25	-15	-26.25	-41.25	-30
1724	-11.25	-67.5	60	33.75	-3.75	-18.75	-30	-22.5
1725	-7.5	-71.25	63.75	37.5	-7.5	-15	-30	-18.75
1726	-15	-82.5	60	33.75	-11.25	-18.75	-30	-15
1727	-15	-90	52.5	30	-7.5	-22.5	-37.5	-18.75
1728	-11.25	-86.25	48.75	26.25	-11.25	-22.5	-37.5	-18.75
1729	-7.5	-78.75	56.25	33.75	-7.5	-15	-30	-11.25
1730	-18.75	-86.25	56.25	33.75	-3.75	-15	-26.25	-11.25
1731	-30	-93.75	52.5	26.25	-15	-22.5	-33.75	-18.75
1732	-33.75	-97.5	48.75	18.75	-22.5	-30	-41.25	-26.25
1733	-30	-93.75	41.25	11.25	-30	-37.5	-52.5	-37.5
1734	-22.5	-71.25	45	15	-22.5	-30	-45	-30
1735	-22.5	-63.75	45	15	-22.5	-33.75	-45	-33.75
1736	-26.25	-71.25	45	15	-18.75	-33.75	-45	-33.75
1737	-18.75	-75	52.5	22.5	-15	-26.25	-37.5	-22.5
1738	-11.25	-82.5	52.5	22.5	-22.5	-26.25	-37.5	-18.75
1739	-18.75	-93.75	45	15	-26.25	-30	-45	-26.25
1740	-30	-97.5	45	18.75	-15	-22.5	-37.5	-18.75
1741	-37.5	-101.25	45	11.25	-22.5	-30	-45	-22.5
1742	-26.25	-90	45	7.5	-33.75	-37.5	-45	-26.25
1743	-26.25	-90	37.5	3.75	-33.75	-37.5	-48.75	-30
1744	-30	-90	33.75	0	-33.75	-41.25	-56.25	-41.25
1745	-33.75	-86.25	33.75	-3.75	-37.5	-45	-56.25	-41.25
1746	-30	-82.5	33.75	-11.25	-45	-48.75	-56.25	-41.25
1747	-26.25	-86.25	33.75	-7.5	-41.25	-45	-56.25	-41.25
1748	-26.25	-90	37.5	3.75	-33.75	-41.25	-52.5	-37.5
1749	-18.75	-82.5	37.5	7.5	-26.25	-33.75	-45	-30
1750	-15	-86.25	37.5	7.5	-26.25	-33.75	-45	-22.5
1751	-15	-90	37.5	3.75	-30	-33.75	-45	-22.5
1752	-11.25	-90	33.75	-3.75	-37.5	-37.5	-48.75	-30
1753	-18.75	-97.5	37.5	0	-33.75	-37.5	-48.75	-26.25
1754	-22.5	-97.5	37.5	0	-37.5	-41.25	-48.75	-26.25
1755	-33.75	-105	30	-11.25	-45	-45	-60	-33.75
1756	-48.75	-112.5	22.5	-18.75	-52.5	-52.5	-63.75	-45
1757	-30	-90	26.25	-15	-48.75	-52.5	-63.75	-45
1758	-15	-71.25	37.5	-7.5	-45	-48.75	-63.75	-45
1759	-26.25	-78.75	33.75	-7.5	-45	-48.75	-63.75	-45
1760	-30	-82.5	33.75	-3.75	-45	-48.75	-63.75	-41.25
1761	-22.5	-82.5	41.25	0	-37.5	-41.25	-52.5	-30
1762	-22.5	-90	33.75	-3.75	-37.5	-41.25	-52.5	-30
1763	-30	-108.75	30	-15	-48.75	-45	-56.25	-33.75
1764	-30	-108.75	30	-11.25	-52.5	-48.75	-56.25	-30
1765	-22.5	-101.25	30	-3.75	-41.25	-45	-52.5	-30
1766	-26.25	-105	26.25	-11.25	-45	-48.75	-60	-30
1767	-26.25	-101.25	26.25	-15	-52.5	-52.5	-63.75	-33.75
1768	-26.25	-97.5	22.5	-18.75	-52.5	-56.25	-67.5	-45
1769	-33.75	-93.75	22.5	-26.25	-56.25	-60	-67.5	-48.75
1770	-33.75	-86.25	26.25	-22.5	-52.5	-56.25	-67.5	-45
1771	-30	-90	30	-15	-45	-52.5	-63.75	-41.25
1772	-30	-90	30	-18.75	-52.5	-56.25	-63.75	-41.25
1773	-26.25	-90	37.5	-11.25	-52.5	-48.75	-56.25	-37.5
1774	-18.75	-90	37.5	3.75	-37.5	-41.25	-52.5	-30
1775	-15	-75	33.75	3.75	-33.75	-37.5	-48.75	-26.25
1776	-15	-67.5	41.25	3.75	-30	-30	-41.25	-18.75
1777	-18.75	-75	52.5	11.25	-18.75	-22.5	-37.5	-15
1778	-22.5	-71.25	60	18.75	-18.75	-26.25	-37.5	-15
1779	-33.75	-71.25	60	15	-22.5	-30	-41.25	-18.75
1780	-41.25	-75	56.25	7.5	-26.25	-37.5	-48.75	-26.25
1781	-37.5	-56.25	63.75	11.25	-26.25	-33.75	-48.75	-30
1782	-30	-33.75	71.25	15	-26.25	-33.75	-48.75	-26.25
1783	-22.5	-30	75	22.5	-18.75	-26.25	-41.25	-22.5
1784	-15	-37.5	78.75	30	-11.25	-22.5	-37.5	-18.75
1785	-3.75	-41.25	86.25	37.5	-7.5	-18.75	-26.25	-7.5
1786	7.5	-41.25	90	48.75	0	-7.5	-18.75	0
1787	7.5	-45	90	52.5	7.5	-3.75	-15	0
1788	3.75	-48.75	90	41.25	-7.5	-7.5	-22.5	-3.75
1789	-11.25	-52.5	97.5	48.75	0	-3.75	-15	0
1790	-18.75	-48.75	101.25	52.5	7.5	-3.75	-15	0
1791	-22.5	-37.5	108.75	52.5	3.75	0	-11.25	3.75
1792	-26.25	-26.25	108.75	48.75	3.75	0	-15	0
1793	-15	-3.75	105	48.75	7.5	0	-18.75	-3.75
1794	-7.5	11.25	101.25	52.5	11.25	3.75	-11.25	3.75
1795	-15	3.75	93.75	48.75	7.5	3.75	-7.5	7.5
1796	-7.5	7.5	86.25	52.5	11.25	7.5	0	11.25
1797	11.25	15	82.5	56.25	22.5	15	7.5	22.5
1798	30	3.75	67.5	56.25	22.5	18.75	7.5	30
1799	37.5	-7.5	52.5	45	18.75	15	7.5	26.25
1800	41.25	0	45	37.5	11.25	11.25	3.75	26.25
1801	41.25	3.75	41.25	33.75	3.75	7.5	0	26.25
1802	37.5	-3.75	33.75	33.75	7.5	7.5	0	22.5
1803	37.5	-15	22.5	22.5	0	0	-11.25	15
1804	26.25	-22.5	18.75	7.5	-15	-7.5	-18.75	7.5
1805	18.75	-30	11.25	-7.5	-26.25	-22.5	-26.25	-3.75
1806	18.75	-37.5	3.75	-7.5	-30	-26.25	-33.75	-15
1807	22.5	-33.75	3.75	-11.25	-33.75	-30	-37.5	-15
1808	26.25	-33.75	7.5	-7.5	-30	-26.25	-33.75	-11.25
1809	33.75	-45	7.5	0	-26.25	-22.5	-30	-3.75
1810	33.75	-52.5	15	0	-22.5	-18.75	-22.5	3.75
1811	33.75	-48.75	18.75	0	-26.25	-18.75	-22.5	3.75
1812	33.75	-52.5	18.75	-3.75	-30	-18.75	-26.25	3.75
1813	26.25	-63.75	26.25	0	-26.25	-15	-22.5	7.5
1814	11.25	-71.25	26.25	3.75	-18.75	-11.25	-22.5	3.75
1815	-3.75	-75	15	-11.25	-33.75	-26.25	-37.5	-11.25
1816	-11.25	-75	11.25	-18.75	-45	-41.25	-52.5	-26.25
1817	-15	-67.5	15	-18.75	-45	-41.25	-52.5	-26.25
1818	-15	-63.75	15	-26.25	-56.25	-45	-60	-30
1819	-15	-63.75	15	-22.5	-52.5	-48.75	-60	-37.5
1820	-18.75	-71.25	11.25	-22.5	-52.5	-52.5	-67.5	-41.25
1821	-18.75	-82.5	15	-22.5	-56.25	-56.25	-67.5	-37.5
1822	-22.5	-101.25	11.25	-26.25	-56.25	-56.25	-63.75	-33.75
1823	-30	-108.75	15	-22.5	-52.5	-48.75	-60	-30
1824	-37.5	-120	15	-26.25	-56.25	-52.5	-63.75	-33.75
1825	-41.25	-131.25	15	-26.25	-60	-56.25	-63.75	-33.75
1826	-41.25	-127.5	15	-30	-60	-56.25	-63.75	-37.5
1827	-52.5	-127.5	15	-37.5	-67.5	-60	-67.5	-41.25
1828	-56.25	-135	3.75	-56.25	-86.25	-78.75	-86.25	-60
1829	-48.75	-123.75	0	-52.5	-78.75	-75	-82.5	-60
1830	-41.25	-112.5	3.75	-48.75	-71.25	-71.25	-82.5	-56.25
1831	-37.5	-108.75	0	-52.5	-78.75	-75	-82.5	-56.25
1832	-41.25	-108.75	3.75	-45	-75	-71.25	-78.75	-52.5
1833	-41.25	-112.5	11.25	-41.25	-71.25	-67.5	-75	-45
1834	-33.75	-116.25	11.25	-30	-60	-60	-71.25	-41.25
1835	-30	-123.75	3.75	-33.75	-63.75	-63.75	-75	-45
1836	-33.75	-127.5	3.75	-37.5	-67.5	-67.5	-78.75	-45
1837	-30	-123.75	7.5	-37.5	-67.5	-63.75	-75	-45
1838	-26.25	-123.75	7.5	-33.75	-63.75	-63.75	-75	-41.25
1839	-37.5	-131.25	0	-45	-71.25	-71.25	-82.5	-52.5
1840	-52.5	-135	-3.75	-52.5	-78.75	-78.75	-90	-60
1841	-45	-116.25	0	-48.75	-75	-75	-86.25	-60
1842	-37.5	-105	3.75	-45	-75	-71.25	-82.5	-56.25
1843	-41.25	-108.75	7.5	-45	-71.25	-71.25	-82.5	-56.25
1844	-37.5	-108.75	7.5	-45	-71.25	-71.25	-82.5	-56.25
1845	-22.5	-101.25	15	-33.75	-60	-63.75	-75	-48.75
1846	-22.5	-116.25	11.25	-30	-60	-67.5	-75	-45
1847	-41.25	-138.75	0	-41.25	-75	-78.75	-90	-60
1848	-45	-146.25	3.75	-41.25	-78.75	-82.5	-97.5	-71.25
1849	-41.25	-161.25	30	-22.5	-78.75	-90	-105	-78.75
1850	-26.25	-176.25	71.25	15	-71.25	-93.75	-116.25	-97.5
1851	-18.75	-191.25	127.5	63.75	-56.25	-105	-138.75	-123.75
1852	-33.75	-225	172.5	105	-56.25	-135	-176.25	-165
1853	-33.75	-236.25	217.5	146.25	-56.25	-153.75	-198.75	-191.25
1854	-11.25	-217.5	270	202.5	-30	-142.5	-195	-187.5
1855	7.5	-183.75	318.75	270	18.75	-105	-165	-161.25
1856	41.25	-123.75	363.75	356.25	82.5	-48.75	-112.5	-112.5
1857	86.25	-71.25	397.5	442.5	165	18.75	-48.75	-56.25
1858	138.75	-26.25	416.25	513.75	240	82.5	11.25	-3.75
1859	176.25	26.25	420	551.25	288.75	138.75	67.5	52.5
1860	221.25	101.25	427.5	600	356.25	213.75	146.25	127.5
1861	296.25	195	423.75	656.25	435	311.25	243.75	221.25
1862	367.5	300	397.5	701.25	525	423.75	360	330
1863	412.5	416.25	356.25	716.25	607.5	536.25	476.25	446.25
1864	468.75	555	288.75	705	690	656.25	611.25	573.75
1865	528.75	735	240	720	798.75	810	768.75	727.5
1866	558.75	933.75	232.5	776.25	941.25	986.25	948.75	900
1867	585	1151.25	165	750	1031.25	1143.75	1132.5	1091.25
1868	611.25	1380	30	641.25	1091.25	1308.75	1338.75	1312.5
1869	660	1526.25	-108.75	517.5	1136.25	1443.75	1511.25	1485
1870	693.75	1578.75	-255	341.25	1132.5	1533.75	1620	1601.25
1871	652.5	1608.75	-367.5	187.5	1136.25	1612.5	1713.75	1687.5
1872	566.25	1578.75	-378.75	165	1200	1691.25	1770	1713.75
1873	483.75	1507.5	-352.5	180	1263.75	1743.75	1788.75	1695
1874	401.25	1447.5	-378.75	116.25	1267.5	1747.5	1770	1650
1875	303.75	1353.75	-442.5	-11.25	1185	1657.5	1665	1548.75
1876	187.5	1173.75	-465	-135	1027.5	1451.25	1458.75	1353.75
1877	63.75	952.5	-423.75	-221.25	817.5	1173.75	1177.5	1098.75
1878	-30	761.25	-401.25	-341.25	543.75	855	888.75	858.75
1879	-97.5	592.5	-435	-521.25	225	517.5	600	633.75
1880	-157.5	438.75	-465	-663.75	-30	247.5	360	442.5
1881	-195	307.5	-446.25	-686.25	-146.25	97.5	202.5	300
1882	-210	180	-405	-630	-161.25	33.75	101.25	180
1883	-210	67.5	-397.5	-588.75	-168.75	-11.25	26.25	86.25
1884	-198.75	18.75	-390	-521.25	-135	-7.5	15	60
1885	-176.25	11.25	-360	-435	-86.25	26.25	37.5	71.25
1886	-153.75	-3.75	-326.25	-382.5	-82.5	26.25	37.5	71.25
1887	-127.5	-15	-296.25	-356.25	-105	0	15	48.75
1888	-112.5	-15	-255	-300	-97.5	-3.75	11.25	41.25
1889	-105	0	-206.25	-225	-63.75	11.25	22.5	52.5
1890	-71.25	33.75	-157.5	-153.75	-18.75	37.5	45	71.25
1891	-41.25	52.5	-120	-86.25	26.25	63.75	63.75	86.25
1892	-22.5	48.75	-86.25	-37.5	52.5	78.75	71.25	86.25
1893	0	41.25	-41.25	11.25	78.75	97.5	78.75	93.75
1894	7.5	22.5	-15	41.25	93.75	101.25	78.75	93.75
1895	-3.75	3.75	-3.75	48.75	93.75	93.75	71.25	82.5
1896	11.25	7.5	11.25	56.25	90	82.5	60	75
1897	18.75	-3.75	18.75	60	82.5	71.25	52.5	67.5
1898	3.75	-18.75	22.5	63.75	78.75	67.5	45	56.25
1899	-7.5	-30	22.5	56.25	67.5	56.25	30	45
1900	-15	-41.25	15	37.5	41.25	33.75	7.5	22.5
1901	-15	-33.75	22.5	45	41.25	30	3.75	18.75
1902	0	-22.5	33.75	52.5	48.75	30	3.75	18.75
1903	3.75	-30	37.5	56.25	48.75	26.25	3.75	15
1904	0	-41.25	37.5	48.75	33.75	15	-7.5	11.25
1905	11.25	-33.75	41.25	63.75	41.25	18.75	-3.75	18.75
1906	18.75	-41.25	45	71.25	48.75	26.25	3.75	22.5
1907	22.5	-56.25	41.25	67.5	45	22.5	0	22.5
1908	26.25	-56.25	41.25	67.5	45	26.25	3.75	22.5
1909	15	-67.5	41.25	63.75	37.5	18.75	-3.75	18.75
1910	15	-71.25	37.5	56.25	33.75	11.25	-11.25	11.25
1911	18.75	-60	41.25	60	33.75	15	-7.5	18.75
1912	11.25	-60	37.5	52.5	22.5	11.25	-11.25	11.25
1913	0	-60	37.5	45	15	3.75	-18.75	0
1914	3.75	-56.25	41.25	52.5	22.5	3.75	-18.75	0
1915	15	-52.5	41.25	67.5	37.5	15	-15	3.75
1916	18.75	-45	45	60	33.75	15	-7.5	11.25
1917	22.5	-37.5	52.5	67.5	26.25	15	-3.75	22.5
1918	22.5	-48.75	56.25	86.25	48.75	26.25	7.5	26.25
1919	18.75	-75	45	75	41.25	18.75	-7.5	11.25
1920	26.25	-63.75	48.75	75	37.5	18.75	-7.5	18.75
1921	37.5	-41.25	48.75	82.5	48.75	26.25	3.75	26.25
1922	33.75	-48.75	45	78.75	45	22.5	0	22.5
1923	30	-56.25	41.25	75	41.25	18.75	-7.5	15
1924	22.5	-63.75	37.5	71.25	33.75	11.25	-11.25	3.75
1925	30	-48.75	37.5	71.25	37.5	15	-11.25	7.5
1926	41.25	-26.25	41.25	78.75	41.25	18.75	-3.75	11.25
1927	37.5	-26.25	45	82.5	45	22.5	0	15
1928	45	-30	48.75	90	52.5	30	7.5	22.5
1929	56.25	-30	52.5	101.25	60	41.25	18.75	33.75
1930	60	-33.75	56.25	108.75	71.25	48.75	26.25	41.25
1931	52.5	-37.5	56.25	105	71.25	52.5	33.75	48.75
1932	48.75	-41.25	52.5	108.75	67.5	52.5	33.75	48.75
1933	63.75	-37.5	48.75	108.75	75	56.25	33.75	48.75
1934	71.25	-30	52.5	112.5	78.75	60	37.5	48.75
1935	67.5	-30	48.75	108.75	71.25	56.25	33.75	48.75
1936	41.25	-45	41.25	97.5	63.75	48.75	26.25	41.25
1937	41.25	-33.75	41.25	97.5	67.5	48.75	22.5	33.75
1938	52.5	-18.75	41.25	101.25	67.5	48.75	22.5	33.75
1939	56.25	-18.75	41.25	105	71.25	48.75	26.25	33.75
1940	63.75	-11.25	45	112.5	75	52.5	30	41.25
1941	82.5	-3.75	52.5	123.75	82.5	60	37.5	48.75
1942	97.5	-3.75	56.25	135	97.5	71.25	48.75	60
1943	90	-15	48.75	131.25	90	71.25	48.75	63.75
1944	75	-26.25	45	123.75	86.25	67.5	45	60
1945	82.5	-11.25	48.75	127.5	97.5	75	52.5	67.5
1946	97.5	3.75	48.75	138.75	105	82.5	60	75
1947	90	-7.5	48.75	135	101.25	78.75	56.25	71.25
1948	75	-11.25	45	127.5	93.75	75	52.5	63.75
1949	75	-3.75	45	131.25	97.5	75	52.5	60
1950	86.25	3.75	45	135	105	78.75	56.25	63.75
1951	97.5	7.5	45	138.75	105	82.5	56.25	67.5
1952	105	18.75	48.75	146.25	108.75	86.25	63.75	71.25
1953	123.75	30	56.25	157.5	123.75	97.5	75	82.5
1954	123.75	15	52.5	165	127.5	101.25	78.75	86.25
1955	112.5	-7.5	45	157.5	123.75	97.5	71.25	82.5
1956	108.75	-15	41.25	150	116.25	93.75	67.5	78.75
1957	116.25	-3.75	41.25	150	116.25	97.5	71.25	82.5
1958	116.25	7.5	45	161.25	123.75	105	78.75	90
1959	112.5	7.5	48.75	165	127.5	105	78.75	93.75
1960	112.5	15	41.25	153.75	120	101.25	75	82.5
1961	108.75	22.5	37.5	142.5	112.5	97.5	71.25	78.75
1962	116.25	30	37.5	150	116.25	93.75	71.25	78.75
1963	135	45	45	168.75	135	108.75	86.25	90
1964	135	41.25	52.5	176.25	146.25	120	97.5	101.25
1965	138.75	37.5	56.25	183.75	146.25	123.75	101.25	112.5
1966	146.25	33.75	48.75	168.75	131.25	120	101.25	116.25
1967	153.75	33.75	48.75	168.75	135	123.75	105	120
1968	153.75	30	41.25	183.75	150	131.25	105	120
1969	161.25	33.75	41.25	183.75	150	131.25	108.75	123.75
1970	165	37.5	45	180	146.25	127.5	108.75	120
1971	165	45	41.25	183.75	146.25	127.5	108.75	123.75
1972	172.5	56.25	37.5	176.25	142.5	123.75	105	120
1973	161.25	52.5	37.5	172.5	138.75	120	101.25	112.5
1974	161.25	52.5	37.5	176.25	142.5	123.75	105	112.5
1975	168.75	56.25	41.25	180	142.5	123.75	108.75	116.25
1976	172.5	63.75	41.25	180	142.5	127.5	108.75	120
1977	183.75	75	48.75	191.25	153.75	138.75	120	135
1978	195	75	52.5	198.75	157.5	142.5	131.25	146.25
1979	198.75	71.25	48.75	195	153.75	142.5	131.25	146.25
1980	195	67.5	45	195	150	142.5	127.5	146.25
1981	191.25	60	41.25	187.5	150	138.75	127.5	142.5
1982	195	67.5	48.75	187.5	150	138.75	131.25	146.25
1983	187.5	71.25	48.75	183.75	142.5	135	127.5	142.5
1984	187.5	67.5	45	176.25	131.25	127.5	120	135
1985	191.25	67.5	37.5	165	123.75	120	108.75	123.75
1986	191.25	75	41.25	168.75	131.25	123.75	112.5	127.5
1987	191.25	78.75	41.25	168.75	123.75	120	112.5	127.5
1988	202.5	86.25	48.75	172.5	123.75	123.75	116.25	135
1989	210	86.25	52.5	180	135	131.25	123.75	142.5
1990	213.75	82.5	56.25	183.75	135	131.25	127.5	146.25
1991	210	86.25	48.75	176.25	120	120	120	142.5
1992	202.5	86.25	41.25	165	108.75	116.25	112.5	138.75
1993	198.75	78.75	45	165	112.5	116.25	112.5	138.75
1994	202.5	78.75	52.5	168.75	120	120	116.25	142.5
1995	206.25	82.5	56.25	168.75	112.5	120	116.25	142.5
1996	195	75	48.75	153.75	93.75	101.25	101.25	127.5
1997	187.5	78.75	48.75	153.75	97.5	97.5	93.75	120
1998	183.75	86.25	48.75	150	93.75	90	90	112.5
1999	183.75	90	56.25	153.75	97.5	90	90	116.25
2000	191.25	90	63.75	157.5	93.75	93.75	93.75	116.25
2001	191.25	86.25	71.25	165	101.25	97.5	97.5	123.75
2002	180	67.5	71.25	165	101.25	93.75	93.75	120
2003	161.25	41.25	67.5	157.5	90	82.5	86.25	112.5
2004	153.75	37.5	67.5	150	86.25	78.75	78.75	108.75
2005	157.5	45	67.5	150	86.25	82.5	78.75	112.5
2006	161.25	41.25	71.25	150	78.75	75	71.25	105
2007	146.25	37.5	75	150	78.75	67.5	67.5	97.5
2008	127.5	37.5	75	142.5	75	60	60	90
2009	123.75	41.25	78.75	138.75	71.25	60	56.25	82.5
2010	120	41.25	86.25	142.5	71.25	60	52.5	82.5
2011	116.25	37.5	93.75	142.5	71.25	56.25	48.75	75
2012	116.25	37.5	97.5	142.5	63.75	48.75	45	67.5
2013	131.25	48.75	105	150	75	56.25	48.75	75
2014	127.5	33.75	105	146.25	67.5	52.5	48.75	75
2015	108.75	3.75	97.5	131.25	48.75	37.5	37.5	63.75
2016	82.5	-22.5	97.5	138.75	56.25	41.25	37.5	63.75
2017	82.5	-15	101.25	142.5	71.25	48.75	41.25	63.75
2018	93.75	0	101.25	138.75	67.5	48.75	41.25	63.75
2019	82.5	-11.25	101.25	127.5	56.25	33.75	30	56.25
2020	67.5	-22.5	93.75	116.25	45	22.5	15	37.5
2021	60	-18.75	93.75	108.75	41.25	18.75	7.5	30
2022	60	-11.25	97.5	108.75	41.25	15	3.75	22.5
2023	48.75	-15	97.5	105	41.25	11.25	0	18.75
2024	45	-15	101.25	112.5	45	15	3.75	22.5
2025	45	-3.75	108.75	123.75	52.5	22.5	11.25	33.75
2026	33.75	-22.5	105	116.25	45	15	7.5	30
2027	26.25	-52.5	97.5	101.25	33.75	7.5	-3.75	18.75
2028	37.5	-52.5	93.75	97.5	33.75	3.75	-7.5	15
2029	33.75	-56.25	93.75	93.75	30	3.75	-7.5	15
2030	26.25	-63.75	97.5	93.75	33.75	7.5	-3.75	18.75
2031	11.25	-75	90	82.5	22.5	-3.75	-15	3.75
2032	7.5	-71.25	86.25	71.25	11.25	-11.25	-22.5	-3.75
2033	7.5	-71.25	82.5	67.5	7.5	-18.75	-30	-11.25
2034	0	-71.25	82.5	67.5	11.25	-22.5	-33.75	-15
2035	0	-63.75	82.5	63.75	3.75	-26.25	-37.5	-22.5
2036	0	-63.75	86.25	63.75	7.5	-18.75	-33.75	-18.75
2037	0	-67.5	90	71.25	11.25	-15	-30	-11.25
2038	-3.75	-75	90	71.25	15	-15	-30	-11.25
2039	-7.5	-86.25	82.5	63.75	7.5	-18.75	-30	-11.25
2040	-11.25	-97.5	75	52.5	0	-26.25	-37.5	-18.75
2041	-7.5	-93.75	75	52.5	0	-22.5	-37.5	-18.75
2042	-3.75	-90	75	48.75	0	-22.5	-37.5	-15
2043	-7.5	-93.75	71.25	41.25	-7.5	-30	-45	-26.25
2044	-18.75	-101.25	71.25	41.25	-11.25	-33.75	-52.5	-33.75
2045	-30	-97.5	71.25	33.75	-15	-41.25	-52.5	-41.25
2046	-26.25	-75	67.5	30	-18.75	-41.25	-56.25	-41.25
2047	-15	-60	71.25	30	-18.75	-37.5	-52.5	-37.5
2048	-15	-71.25	67.5	30	-15	-37.5	-52.5	-41.25
2049	-15	-86.25	67.5	33.75	-15	-37.5	-52.5	-37.5
2050	-15	-101.25	67.5	33.75	-18.75	-37.5	-52.5	-33.75
2051	-18.75	-120	60	26.25	-22.5	-41.25	-56.25	-33.75
2052	-22.5	-120	60	22.5	-26.25	-41.25	-56.25	-33.75
2053	-22.5	-112.5	63.75	22.5	-22.5	-41.25	-56.25	-37.5
2054	-26.25	-116.25	67.5	18.75	-26.25	-41.25	-56.25	-41.25
2055	-26.25	-112.5	67.5	22.5	-26.25	-45	-56.25	-41.25
2056	-41.25	-108.75	67.5	26.25	-22.5	-41.25	-60	-41.25
2057	-45	-101.25	63.75	22.5	-26.25	-45	-63.75	-48.75
2058	-30	-86.25	71.25	30	-15	-37.5	-56.25	-41.25
2059	-30	-86.25	71.25	33.75	-11.25	-33.75	-52.5	-37.5
2060	-41.25	-97.5	71.25	33.75	-15	-33.75	-48.75	-33.75
2061	-37.5	-90	82.5	41.25	-7.5	-22.5	-37.5	-22.5
2062	-33.75	-97.5	78.75	52.5	3.75	-18.75	-33.75	-22.5
2063	-37.5	-116.25	67.5	48.75	0	-26.25	-41.25	-26.25
2064	-33.75	-108.75	71.25	41.25	-3.75	-22.5	-37.5	-22.5
2065	-26.25	-97.5	75	45	0	-18.75	-33.75	-18.75
2066	-18.75	-93.75	71.25	45	3.75	-15	-30	-18.75
2067	-26.25	-93.75	67.5	41.25	0	-18.75	-33.75	-22.5
2068	-37.5	-93.75	63.75	37.5	-3.75	-22.5	-41.25	-26.25
2069	-48.75	-105	63.75	26.25	-11.25	-30	-48.75	-37.5
2070	-45	-101.25	67.5	30	-7.5	-26.25	-45	-37.5
2071	-30	-82.5	75	45	3.75	-18.75	-37.5	-26.25
2072	-26.25	-82.5	71.25	45	3.75	-18.75	-37.5	-30
2073	-26.25	-90	71.25	48.75	3.75	-15	-33.75	-30
2074	-18.75	-90	75	56.25	11.25	-11.25	-26.25	-18.75
2075	-22.5	-97.5	71.25	56.25	11.25	-11.25	-26.25	-18.75
2076	-26.25	-105	67.5	48.75	3.75	-11.25	-30	-22.5
2077	-26.25	-105	67.5	48.75	7.5	-11.25	-30	-22.5
2078	-26.25	-101.25	71.25	48.75	11.25	-7.5	-26.25	-18.75
2079	-33.75	-101.25	71.25	48.75	7.5	-7.5	-33.75	-22.5
2080	-33.75	-97.5	67.5	45	0	-15	-37.5	-30
2081	-45	-101.25	56.25	33.75	-7.5	-26.25	-45	-37.5
2082	-48.75	-97.5	60	33.75	-7.5	-22.5	-45	-37.5
2083	-41.25	-82.5	67.5	41.25	0	-15	-37.5	-33.75
2084	-33.75	-78.75	67.5	37.5	0	-18.75	-37.5	-33.75
2085	-30	-86.25	71.25	45	7.5	-11.25	-37.5	-30
2086	-18.75	-93.75	71.25	52.5	11.25	-7.5	-30	-22.5
2087	-3.75	-90	71.25	56.25	15	-3.75	-26.25	-18.75
2088	7.5	-78.75	67.5	48.75	11.25	-3.75	-26.25	-18.75
2089	3.75	-82.5	67.5	48.75	11.25	-3.75	-26.25	-18.75
2090	-33.75	-108.75	63.75	41.25	3.75	-11.25	-33.75	-22.5
2091	-41.25	-105	60	33.75	0	-15	-37.5	-30
2092	-30	-93.75	56.25	33.75	-3.75	-18.75	-41.25	-33.75
2093	-37.5	-97.5	52.5	26.25	-7.5	-22.5	-45	-37.5
2094	-37.5	-97.5	52.5	22.5	-15	-26.25	-45	-41.25
2095	-26.25	-86.25	56.25	22.5	-18.75	-26.25	-41.25	-41.25
2096	-30	-86.25	60	30	-11.25	-18.75	-37.5	-33.75
2097	-15	-82.5	60	41.25	3.75	-11.25	-30	-26.25
2098	-3.75	-82.5	63.75	48.75	15	-3.75	-22.5	-18.75
2099	-22.5	-93.75	63.75	48.75	15	-3.75	-22.5	-15
2100	-18.75	-90	56.25	33.75	0	-11.25	-30	-22.5
2101	-11.25	-78.75	60	33.75	0	-11.25	-30	-22.5
2102	-15	-78.75	63.75	45	11.25	-7.5	-26.25	-18.75
2103	-30	-93.75	56.25	33.75	0	-15	-37.5	-30
2104	-37.5	-97.5	45	18.75	-15	-26.25	-45	-37.5
2105	-26.25	-90	48.75	18.75	-11.25	-26.25	-41.25	-33.75
2106	-11.25	-67.5	52.5	30	0	-15	-37.5	-30
2107	-18.75	-67.5	52.5	26.25	-3.75	-18.75	-41.25	-33.75
2108	-26.25	-90	48.75	22.5	-11.25	-26.25	-48.75	-41.25
2109	-15	-93.75	56.25	26.25	-3.75	-22.5	-41.25	-37.5
2110	-7.5	-86.25	60	41.25	7.5	-7.5	-22.5	-22.5
2111	-18.75	-97.5	56.25	37.5	7.5	-11.25	-26.25	-18.75
2112	-26.25	-108.75	52.5	26.25	-3.75	-18.75	-33.75	-26.25
2113	-18.75	-101.25	52.5	30	0	-15	-30	-22.5
2114	-18.75	-101.25	48.75	26.25	-3.75	-15	-30	-22.5
2115	-33.75	-112.5	45	15	-11.25	-22.5	-41.25	-30
2116	-33.75	-105	45	15	-11.25	-26.25	-45	-33.75
2117	-33.75	-97.5	45	11.25	-18.75	-33.75	-48.75	-37.5
2118	-37.5	-97.5	41.25	7.5	-18.75	-33.75	-52.5	-41.25
2119	-33.75	-86.25	48.75	11.25	-15	-30	-48.75	-37.5
2120	-22.5	-78.75	48.75	11.25	-15	-33.75	-48.75	-41.25
2121	-18.75	-86.25	45	11.25	-15	-30	-45	-37.5
2122	-7.5	-90	45	15	-15	-26.25	-41.25	-26.25
2123	-18.75	-105	45	11.25	-18.75	-30	-45	-30
2124	-37.5	-116.25	45	7.5	-18.75	-30	-45	-33.75
2125	-30	-112.5	45	7.5	-18.75	-26.25	-41.25	-26.25
2126	-22.5	-108.75	45	11.25	-11.25	-22.5	-37.5	-22.5
2127	-26.25	-108.75	37.5	0	-22.5	-33.75	-45	-30
2128	-37.5	-116.25	30	-11.25	-33.75	-41.25	-56.25	-41.25
2129	-52.5	-116.25	30	-15	-33.75	-45	-60	-48.75
2130	-41.25	-93.75	37.5	-11.25	-33.75	-41.25	-56.25	-45
2131	-22.5	-82.5	45	-3.75	-30	-33.75	-48.75	-37.5
2132	-18.75	-82.5	41.25	-3.75	-22.5	-33.75	-48.75	-41.25
2133	-26.25	-97.5	37.5	-7.5	-26.25	-41.25	-52.5	-45
2134	-26.25	-108.75	37.5	-3.75	-26.25	-41.25	-48.75	-37.5
2135	-26.25	-116.25	37.5	3.75	-18.75	-33.75	-45	-33.75
2136	-26.25	-116.25	37.5	-7.5	-30	-37.5	-48.75	-37.5
2137	-26.25	-116.25	37.5	-11.25	-37.5	-41.25	-48.75	-37.5
2138	-37.5	-123.75	33.75	-7.5	-30	-41.25	-48.75	-33.75
2139	-41.25	-116.25	37.5	-11.25	-30	-41.25	-52.5	-37.5
2140	-41.25	-112.5	33.75	-15	-37.5	-45	-52.5	-45
2141	-45	-116.25	30	-18.75	-41.25	-52.5	-60	-52.5
2142	-45	-108.75	33.75	-22.5	-37.5	-56.25	-63.75	-56.25
2143	-45	-108.75	33.75	-22.5	-41.25	-52.5	-63.75	-52.5
2144	-45	-105	37.5	-22.5	-41.25	-52.5	-60	-52.5
2145	-37.5	-101.25	37.5	-15	-37.5	-48.75	-56.25	-45
2146	-26.25	-105	37.5	-11.25	-30	-45	-52.5	-41.25
2147	-18.75	-105	37.5	-7.5	-30	-41.25	-52.5	-37.5
2148	-15	-105	37.5	-7.5	-26.25	-41.25	-52.5	-37.5
2149	-18.75	-112.5	33.75	-15	-33.75	-45	-56.25	-41.25
2150	-22.5	-112.5	30	-18.75	-37.5	-48.75	-60	-45
2151	-22.5	-112.5	30	-22.5	-41.25	-48.75	-60	-45
2152	-30	-120	26.25	-26.25	-45	-52.5	-67.5	-48.75
2153	-41.25	-120	22.5	-37.5	-52.5	-60	-75	-56.25
2154	-48.75	-108.75	22.5	-41.25	-56.25	-63.75	-75	-60
2155	-48.75	-105	30	-33.75	-48.75	-56.25	-71.25	-60
2156	-41.25	-108.75	33.75	-26.25	-41.25	-52.5	-67.5	-56.25
2157	-33.75	-112.5	33.75	-22.5	-37.5	-52.5	-63.75	-52.5
2158	-22.5	-112.5	37.5	-15	-33.75	-45	-56.25	-41.25
2159	-33.75	-127.5	37.5	-15	-37.5	-45	-52.5	-37.5
2160	-41.25	-131.25	33.75	-22.5	-41.25	-48.75	-56.25	-41.25
2161	-41.25	-127.5	26.25	-26.25	-41.25	-52.5	-60	-45
2162	-33.75	-123.75	26.25	-30	-45	-52.5	-63.75	-45
2163	-30	-120	30	-26.25	-45	-52.5	-63.75	-45
2164	-33.75	-123.75	22.5	-33.75	-52.5	-60	-71.25	-52.5
2165	-33.75	-116.25	22.5	-37.5	-52.5	-60	-75	-56.25
2166	-41.25	-108.75	22.5	-41.25	-56.25	-63.75	-78.75	-63.75
2167	-48.75	-108.75	22.5	-41.25	-56.25	-67.5	-78.75	-67.5
2168	-41.25	-105	22.5	-37.5	-52.5	-63.75	-75	-60
2169	-26.25	-97.5	37.5	-22.5	-45	-52.5	-63.75	-48.75
2170	-22.5	-97.5	45	-15	-33.75	-41.25	-52.5	-33.75
2171	-26.25	-101.25	45	-11.25	-30	-41.25	-52.5	-33.75
2172	-22.5	-97.5	45	-7.5	-26.25	-41.25	-56.25	-37.5
2173	-15	-82.5	56.25	-3.75	-22.5	-33.75	-52.5	-33.75
2174	-18.75	-78.75	60	-3.75	-22.5	-33.75	-48.75	-30
2175	-30	-86.25	63.75	-3.75	-18.75	-30	-45	-30
2176	-56.25	-101.25	60	-11.25	-30	-41.25	-56.25	-41.25
2177	-56.25	-93.75	67.5	-11.25	-30	-41.25	-56.25	-41.25
2178	-33.75	-71.25	71.25	-3.75	-26.25	-33.75	-48.75	-37.5
2179	-26.25	-63.75	78.75	3.75	-22.5	-33.75	-48.75	-41.25
2180	-37.5	-71.25	86.25	3.75	-18.75	-33.75	-48.75	-37.5
2181	-37.5	-75	90	15	-11.25	-26.25	-41.25	-33.75
2182	-18.75	-71.25	93.75	30	3.75	-15	-30	-18.75
2183	-15	-75	93.75	30	3.75	-11.25	-26.25	-15
2184	-15	-71.25	90	26.25	0	-15	-30	-15
2185	-15	-71.25	90	26.25	0	-15	-30	-15
2186	-18.75	-71.25	93.75	26.25	0	-11.25	-30	-15
2187	-26.25	-63.75	101.25	22.5	-3.75	-11.25	-26.25	-15
2188	-30	-56.25	105	30	3.75	-11.25	-30	-15
2189	-33.75	-41.25	105	26.25	7.5	-7.5	-26.25	-15
2190	-26.25	-11.25	97.5	22.5	0	-7.5	-22.5	-15
2191	-11.25	-3.75	90	22.5	7.5	-7.5	-22.5	-11.25
2192	3.75	-15	82.5	26.25	7.5	-3.75	-18.75	-7.5
2193	18.75	-7.5	75	30	11.25	0	-11.25	0
2194	37.5	-11.25	63.75	33.75	18.75	7.5	-3.75	11.25
2195	60	-26.25	41.25	26.25	11.25	3.75	-3.75	15
2196	63.75	-37.5	30	15	7.5	0	-7.5	11.25
2197	45	-45	33.75	15	3.75	-3.75	-7.5	11.25
2198	26.25	-48.75	37.5	15	7.5	0	-7.5	7.5
2199	26.25	-45	26.25	7.5	3.75	-3.75	-11.25	7.5
2200	18.75	-45	18.75	-7.5	-11.25	-11.25	-18.75	0
2201	11.25	-52.5	7.5	-22.5	-30	-30	-37.5	-15
2202	3.75	-63.75	3.75	-30	-30	-37.5	-45	-26.25
2203	15	-63.75	7.5	-30	-26.25	-33.75	-41.25	-22.5
2204	26.25	-56.25	11.25	-26.25	-33.75	-33.75	-37.5	-18.75
2205	22.5	-56.25	15	-26.25	-37.5	-37.5	-41.25	-18.75
2206	26.25	-56.25	22.5	-11.25	-18.75	-26.25	-33.75	-11.25
2207	26.25	-71.25	18.75	-11.25	-22.5	-30	-37.5	-11.25
2208	22.5	-93.75	22.5	-18.75	-26.25	-33.75	-37.5	-15
2209	7.5	-108.75	22.5	-22.5	-33.75	-37.5	-45	-18.75
2210	3.75	-97.5	26.25	-18.75	-26.25	-26.25	-37.5	-11.25
2211	0	-90	22.5	-26.25	-33.75	-33.75	-45	-22.5
2212	-7.5	-97.5	15	-41.25	-48.75	-48.75	-56.25	-33.75
2213	-26.25	-105	15	-48.75	-56.25	-56.25	-63.75	-41.25
2214	-30	-97.5	22.5	-41.25	-52.5	-56.25	-63.75	-41.25
2215	-37.5	-105	18.75	-41.25	-52.5	-60	-71.25	-48.75
2216	-41.25	-120	18.75	-45	-56.25	-63.75	-78.75	-52.5
2217	-41.25	-127.5	15	-45	-63.75	-67.5	-82.5	-56.25
2218	-37.5	-127.5	22.5	-41.25	-60	-63.75	-75	-48.75
2219	-45	-146.25	11.25	-45	-60	-71.25	-78.75	-56.25
2220	-45	-157.5	11.25	-52.5	-71.25	-75	-82.5	-60
2221	-37.5	-153.75	15	-52.5	-71.25	-75	-82.5	-56.25
2222	-41.25	-153.75	18.75	-48.75	-63.75	-71.25	-78.75	-56.25
2223	-45	-150	15	-52.5	-67.5	-75	-82.5	-56.25
2224	-48.75	-150	7.5	-60	-75	-75	-90	-63.75
2225	-56.25	-150	7.5	-60	-75	-78.75	-90	-71.25
2226	-60	-153.75	3.75	-67.5	-82.5	-86.25	-97.5	-78.75
2227	-48.75	-142.5	11.25	-67.5	-82.5	-82.5	-93.75	-75
2228	-37.5	-123.75	15	-56.25	-71.25	-75	-86.25	-67.5
2229	-37.5	-131.25	11.25	-56.25	-71.25	-78.75	-86.25	-67.5
2230	-33.75	-146.25	11.25	-52.5	-67.5	-75	-86.25	-60
2231	-37.5	-161.25	7.5	-56.25	-71.25	-78.75	-86.25	-63.75
2232	-48.75	-168.75	7.5	-56.25	-71.25	-78.75	-86.25	-63.75
2233	-52.5	-165	7.5	-52.5	-67.5	-75	-82.5	-60
2234	-56.25	-165	7.5	-60	-75	-75	-86.25	-60
2235	-60	-165	3.75	-67.5	-82.5	-86.25	-97.5	-67.5
2236	-56.25	-157.5	7.5	-63.75	-75	-78.75	-90	-67.5
2237	-67.5	-165	3.75	-67.5	-78.75	-82.5	-93.75	-71.25
2238	-71.25	-157.5	3.75	-71.25	-82.5	-86.25	-97.5	-75
2239	-60	-142.5	7.5	-67.5	-78.75	-86.25	-97.5	-75
2240	-52.5	-142.5	11.25	-60	-75	-82.5	-93.75	-71.25
2241	-48.75	-146.25	11.25	-56.25	-71.25	-78.75	-86.25	-67.5
2242	-37.5	-142.5	15	-48.75	-63.75	-75	-86.25	-60
2243	-33.75	-153.75	15	-45	-63.75	-75	-86.25	-60
2244	-37.5	-176.25	18.75	-45	-75	-86.25	-97.5	-71.25
2245	-33.75	-195	48.75	-18.75	-67.5	-90	-108.75	-90
2246	-37.5	-217.5	93.75	30	-56.25	-97.5	-127.5	-112.5
2247	-33.75	-243.75	150	71.25	-56.25	-120	-157.5	-146.25
2248	-33.75	-270	195	108.75	-60	-146.25	-191.25	-183.75
2249	-41.25	-285	236.25	146.25	-52.5	-165	-213.75	-210
2250	-26.25	-251.25	281.25	206.25	-18.75	-142.5	-198.75	-195
2251	11.25	-191.25	326.25	285	45	-93.75	-157.5	-161.25
2252	45	-138.75	371.25	371.25	116.25	-33.75	-108.75	-116.25
2253	93.75	-82.5	397.5	450	191.25	30	-48.75	-63.75
2254	142.5	-33.75	416.25	510	262.5	101.25	18.75	3.75
2255	187.5	22.5	420	551.25	318.75	165	86.25	67.5
2256	243.75	90	423.75	603.75	382.5	243.75	161.25	142.5
2257	318.75	187.5	412.5	660	468.75	348.75	273.75	247.5
2258	378.75	307.5	390	697.5	562.5	465	397.5	363.75
2259	420	431.25	337.5	705	645	585	521.25	487.5
2260	491.25	581.25	266.25	697.5	738.75	720	667.5	630
2261	543.75	761.25	240	738.75	866.25	881.25	832.5	787.5
2262	555	971.25	221.25	768.75	986.25	1050	1008.75	960
2263	570	1207.5	123.75	697.5	1053.75	1211.25	1207.5	1170
2264	603.75	1410	-11.25	585	1113.75	1365	1402.5	1376.25
2265	645	1503.75	-150	442.5	1140	1477.5	1541.25	1518.75
2266	656.25	1556.25	-292.5	258.75	1132.5	1560	1653.75	1627.5
2267	603.75	1571.25	-367.5	157.5	1158.75	1646.25	1740	1698.75
2268	517.5	1511.25	-352.5	168.75	1230	1713.75	1773.75	1698.75
2269	427.5	1436.25	-337.5	153.75	1275	1747.5	1777.5	1665
2270	337.5	1368.75	-378.75	63.75	1252.5	1728.75	1736.25	1608.75
2271	236.25	1233.75	-442.5	-67.5	1136.25	1593.75	1593.75	1470
2272	123.75	1035	-435	-168.75	956.25	1353.75	1353.75	1248.75
2273	11.25	836.25	-390	-262.5	723.75	1053.75	1065	997.5
2274	-86.25	656.25	-393.75	-412.5	423.75	720	765	757.5
2275	-165	480	-431.25	-588.75	116.25	397.5	487.5	532.5
2276	-210	330	-442.5	-697.5	-93.75	168.75	273.75	356.25
2277	-225	198.75	-412.5	-686.25	-161.25	60	142.5	221.25
2278	-228.75	78.75	-382.5	-615	-157.5	11.25	56.25	116.25
2279	-221.25	-3.75	-378.75	-558.75	-146.25	-11.25	7.5	56.25
2280	-195	-22.5	-367.5	-495	-108.75	7.5	15	48.75
2281	-172.5	-30	-341.25	-423.75	-78.75	26.25	30	56.25
2282	-153.75	-37.5	-303.75	-378.75	-86.25	15	22.5	48.75
2283	-135	-48.75	-270	-337.5	-97.5	-3.75	7.5	33.75
2284	-127.5	-67.5	-232.5	-281.25	-82.5	-3.75	3.75	30
2285	-112.5	-48.75	-187.5	-217.5	-56.25	7.5	11.25	33.75
2286	-82.5	-7.5	-142.5	-146.25	-7.5	37.5	33.75	52.5
2287	-52.5	7.5	-105	-82.5	33.75	63.75	52.5	63.75
2288	-30	3.75	-63.75	-33.75	60	75	56.25	63.75
2289	-15	3.75	-18.75	11.25	90	90	63.75	67.5
2290	0	-3.75	7.5	45	105	97.5	71.25	75
2291	-3.75	-30	15	48.75	97.5	86.25	60	63.75
2292	-11.25	-60	22.5	45	82.5	71.25	45	52.5
2293	-7.5	-75	30	41.25	63.75	60	33.75	45
2294	-7.5	-75	33.75	41.25	67.5	56.25	30	41.25
2295	-18.75	-78.75	33.75	48.75	75	48.75	22.5	30
2296	-30	-93.75	30	41.25	60	33.75	3.75	11.25
2297	-26.25	-93.75	30	26.25	37.5	18.75	-7.5	0
2298	-18.75	-82.5	30	18.75	30	11.25	-15	-7.5
2299	-18.75	-78.75	33.75	26.25	33.75	11.25	-15	-11.25
2300	-18.75	-78.75	37.5	37.5	41.25	11.25	-15	-11.25
2301	-15	-82.5	45	41.25	41.25	15	-15	-7.5
2302	0	-90	45	45	33.75	11.25	-15	-7.5
2303	7.5	-101.25	45	56.25	41.25	11.25	-15	-3.75
2304	-7.5	-116.25	41.25	52.5	37.5	7.5	-22.5	-7.5
2305	-11.25	-120	45	52.5	37.5	7.5	-18.75	-7.5
2306	-11.25	-116.25	52.5	52.5	37.5	7.5	-18.75	-7.5
2307	-15	-112.5	56.25	52.5	37.5	7.5	-22.5	-7.5
2308	-11.25	-112.5	45	45	26.25	0	-30	-18.75
2309	-3.75	-105	41.25	41.25	22.5	-3.75	-30	-22.5
2310	-7.5	-97.5	45	45	30	0	-30	-22.5
2311	-15	-97.5	48.75	45	30	0	-30	-18.75
2312	-11.25	-97.5	48.75	48.75	30	0	-30	-22.5
2313	-11.25	-97.5	52.5	56.25	33.75	3.75	-26.25	-18.75
2314	3.75	-90	56.25	63.75	45	11.25	-15	-3.75
2315	11.25	-101.25	48.75	67.5	45	15	-11.25	0
2316	0	-123.75	41.25	60	37.5	7.5	-18.75	-7.5
2317	0	-116.25	45	63.75	41.25	15	-11.25	0
2318	18.75	-97.5	52.5	67.5	48.75	22.5	-3.75	7.5
2319	18.75	-97.5	56.25	71.25	52.5	22.5	0	11.25
2320	18.75	-93.75	48.75	63.75	45	18.75	-7.5	3.75
2321	22.5	-78.75	41.25	60	41.25	15	-11.25	-3.75
2322	30	-71.25	45	63.75	41.25	15	-11.25	-3.75
2323	22.5	-78.75	45	63.75	45	15	-11.25	-7.5
2324	11.25	-78.75	45	67.5	48.75	15	-7.5	-7.5
2325	30	-67.5	52.5	78.75	60	26.25	3.75	7.5
2326	48.75	-63.75	56.25	93.75	71.25	37.5	15	18.75
2327	33.75	-78.75	60	97.5	71.25	41.25	15	22.5
2328	18.75	-97.5	52.5	90	63.75	33.75	7.5	15
2329	15	-93.75	45	82.5	60	26.25	3.75	7.5
2330	33.75	-78.75	45	86.25	67.5	33.75	7.5	15
2331	48.75	-75	45	90	71.25	37.5	15	18.75
2332	45	-78.75	41.25	86.25	67.5	33.75	7.5	11.25
2333	33.75	-82.5	37.5	86.25	67.5	33.75	7.5	11.25
2334	30	-71.25	41.25	82.5	67.5	37.5	7.5	11.25
2335	30	-56.25	52.5	97.5	82.5	48.75	18.75	18.75
2336	33.75	-56.25	52.5	101.25	82.5	45	18.75	18.75
2337	41.25	-56.25	56.25	108.75	90	52.5	30	30
2338	56.25	-52.5	56.25	120	97.5	63.75	41.25	41.25
2339	63.75	-60	60	123.75	101.25	67.5	41.25	45
2340	60	-67.5	56.25	120	101.25	67.5	41.25	41.25
2341	56.25	-63.75	56.25	123.75	105	67.5	41.25	41.25
2342	56.25	-63.75	52.5	123.75	101.25	67.5	41.25	41.25
2343	52.5	-67.5	48.75	120	101.25	67.5	41.25	41.25
2344	52.5	-71.25	41.25	112.5	97.5	67.5	37.5	37.5
2345	60	-63.75	41.25	112.5	93.75	67.5	37.5	33.75
2346	52.5	-63.75	41.25	108.75	90	63.75	37.5	30
2347	56.25	-60	48.75	123.75	105	75	45	37.5
2348	67.5	-45	52.5	135	123.75	86.25	52.5	48.75
2349	82.5	-37.5	56.25	142.5	127.5	90	60	60
2350	97.5	-37.5	63.75	150	135	101.25	71.25	71.25
2351	101.25	-45	60	153.75	138.75	101.25	75	71.25
2352	97.5	-48.75	56.25	153.75	138.75	101.25	71.25	71.25
2353	90	-45	52.5	153.75	138.75	101.25	67.5	71.25
2354	86.25	-45	52.5	150	138.75	105	71.25	75
2355	90	-45	41.25	142.5	131.25	101.25	67.5	67.5
2356	93.75	-30	45	146.25	131.25	97.5	67.5	67.5
2357	90	-15	45	146.25	131.25	97.5	67.5	63.75
2358	90	-11.25	41.25	146.25	131.25	97.5	63.75	60
2359	86.25	-11.25	48.75	150	135	101.25	67.5	63.75
2360	93.75	-11.25	45	146.25	120	93.75	63.75	60
2361	108.75	-3.75	45	150	123.75	101.25	71.25	67.5
2362	120	0	52.5	168.75	153.75	116.25	86.25	86.25
2363	120	-15	45	172.5	153.75	116.25	86.25	86.25
2364	127.5	-15	41.25	168.75	146.25	112.5	86.25	86.25
2365	142.5	0	48.75	172.5	153.75	123.75	93.75	93.75
2366	138.75	0	48.75	168.75	150	123.75	93.75	97.5
2367	135	0	45	165	142.5	120	93.75	93.75
2368	135	0	41.25	168.75	146.25	120	90	93.75
2369	131.25	0	37.5	165	146.25	120	90	93.75
2370	135	11.25	33.75	161.25	142.5	116.25	90	90
2371	146.25	26.25	37.5	165	146.25	120	93.75	93.75
2372	150	30	41.25	168.75	146.25	120	93.75	97.5
2373	153.75	30	48.75	176.25	153.75	131.25	105	108.75
2374	168.75	30	52.5	187.5	161.25	138.75	116.25	120
2375	165	22.5	56.25	187.5	157.5	138.75	120	127.5
2376	153.75	7.5	48.75	176.25	150	127.5	108.75	116.25
2377	157.5	11.25	41.25	168.75	146.25	127.5	105	112.5
2378	157.5	18.75	48.75	172.5	150	131.25	112.5	123.75
2379	157.5	22.5	48.75	172.5	146.25	127.5	108.75	120
2380	153.75	11.25	45	168.75	138.75	120	105	116.25
2381	153.75	7.5	37.5	153.75	127.5	112.5	97.5	105
2382	157.5	26.25	45	153.75	127.5	112.5	93.75	105
2383	165	48.75	45	161.25	131.25	112.5	93.75	105
2384	161.25	45	45	157.5	127.5	112.5	93.75	108.75
2385	165	33.75	45	157.5	123.75	112.5	93.75	108.75
2386	172.5	33.75	48.75	168.75	135	116.25	101.25	116.25
2387	176.25	26.25	52.5	168.75	131.25	112.5	101.25	116.25
2388	172.5	22.5	52.5	165	123.75	108.75	97.5	116.25
2389	172.5	26.25	52.5	165	120	108.75	93.75	116.25
2390	176.25	30	52.5	161.25	116.25	105	93.75	112.5
2391	176.25	33.75	56.25	161.25	116.25	105	93.75	112.5
2392	165	33.75	56.25	150	108.75	101.25	86.25	108.75
2393	150	26.25	56.25	142.5	97.5	90	75	97.5
2394	150	41.25	56.25	138.75	93.75	86.25	75	93.75
2395	150	52.5	60	142.5	97.5	86.25	71.25	93.75
2396	138.75	33.75	63.75	142.5	93.75	82.5	67.5	90
2397	138.75	15	67.5	142.5	93.75	75	63.75	86.25
2398	135	0	67.5	146.25	90	75	63.75	86.25
2399	138.75	0	67.5	146.25	93.75	75	63.75	90
2400	131.25	-3.75	71.25	138.75	82.5	71.25	56.25	86.25
2401	127.5	-3.75	75	135	75	67.5	56.25	82.5
