samplenr	I	II	V1	V2	V3	V4	V5	V6	measurement
0	-33.75	-78.75	-3.75	-11.25	-63.75	-52.5	-97.5	-168.75
1	-3.75	-41.25	-18.75	-22.5	-75	-63.75	-112.5	-176.25
2	18.75	-18.75	-33.75	-37.5	-90	-78.75	-127.5	-187.5
3	45	-15	-33.75	-33.75	-86.25	-78.75	-123.75	-183.75
4	86.25	-26.25	-45	-45	-97.5	-90	-135	-187.5
5	112.5	-48.75	-52.5	-52.5	-108.75	-105	-142.5	-198.75
6	82.5	-63.75	-48.75	-52.5	-101.25	-97.5	-135	-191.25
7	41.25	-63.75	-45	-48.75	-101.25	-93.75	-135	-195
8	22.5	-75	-45	-52.5	-101.25	-97.5	-138.75	-202.5
9	37.5	-71.25	-41.25	-45	-97.5	-93.75	-135	-198.75
10	56.25	-52.5	-33.75	-33.75	-86.25	-82.5	-123.75	-187.5
11	26.25	-52.5	-30	-30	-78.75	-75	-120	-180
12	-15	-60	-15	-15	-60	-52.5	-93.75	-161.25
13	-22.5	-67.5	3.75	3.75	-41.25	-33.75	-75	-138.75
14	7.5	-52.5	0	0	-45	-41.25	-82.5	-146.25
15	37.5	-45	-15	-18.75	-60	-56.25	-101.25	-161.25
16	71.25	-56.25	-33.75	-33.75	-82.5	-75	-116.25	-176.25
17	75	-78.75	-41.25	-41.25	-90	-86.25	-120	-180
18	45	-101.25	-33.75	-37.5	-86.25	-82.5	-116.25	-172.5
19	37.5	-112.5	-15	-26.25	-71.25	-67.5	-101.25	-161.25
20	33.75	-120	-7.5	-18.75	-63.75	-63.75	-97.5	-157.5
21	52.5	-90	-3.75	-7.5	-56.25	-52.5	-90	-150
22	56.25	-82.5	3.75	0	-48.75	-45	-82.5	-142.5
23	26.25	-97.5	7.5	0	-45	-37.5	-75	-142.5
24	3.75	-90	3.75	-3.75	-45	-37.5	-78.75	-142.5
25	3.75	-71.25	-7.5	-15	-60	-52.5	-93.75	-153.75
26	11.25	-60	-15	-26.25	-67.5	-63.75	-105	-165
27	7.5	-63.75	-22.5	-33.75	-75	-71.25	-116.25	-172.5
28	33.75	-78.75	-37.5	-45	-90	-90	-127.5	-180
29	82.5	-82.5	-45	-52.5	-101.25	-97.5	-131.25	-183.75
30	93.75	-93.75	-41.25	-52.5	-101.25	-97.5	-131.25	-180
31	67.5	-127.5	-22.5	-41.25	-86.25	-82.5	-112.5	-168.75
32	56.25	-153.75	-15	-33.75	-78.75	-75	-105	-157.5
33	71.25	-127.5	-22.5	-33.75	-82.5	-78.75	-105	-161.25
34	45	-71.25	-26.25	-41.25	-86.25	-78.75	-105	-165
35	-7.5	0	-37.5	-52.5	-93.75	-86.25	-116.25	-176.25
36	-52.5	15	-41.25	-56.25	-97.5	-86.25	-120	-180
37	-52.5	-33.75	-30	-48.75	-90	-78.75	-108.75	-168.75
38	-22.5	-86.25	-18.75	-33.75	-75	-67.5	-97.5	-153.75
39	3.75	-105	-26.25	-33.75	-75	-71.25	-101.25	-157.5
40	33.75	-112.5	-41.25	-52.5	-93.75	-90	-116.25	-165
41	63.75	-138.75	-41.25	-56.25	-101.25	-97.5	-120	-165
42	52.5	-168.75	-22.5	-37.5	-82.5	-78.75	-105	-150
43	37.5	-161.25	-18.75	-37.5	-82.5	-75	-101.25	-150
44	48.75	-93.75	-41.25	-60	-105	-97.5	-123.75	-172.5
45	41.25	-60	-60	-78.75	-123.75	-116.25	-142.5	-187.5
46	15	-71.25	-56.25	-75	-120	-112.5	-138.75	-187.5
47	-7.5	-67.5	-45	-67.5	-108.75	-101.25	-127.5	-183.75
48	-18.75	-48.75	-41.25	-60	-101.25	-93.75	-123.75	-180
49	-11.25	-48.75	-37.5	-60	-97.5	-90	-123.75	-172.5
50	3.75	-52.5	-52.5	-71.25	-112.5	-101.25	-135	-183.75
51	7.5	-33.75	-56.25	-78.75	-120	-108.75	-142.5	-187.5
52	45	-41.25	-63.75	-86.25	-123.75	-112.5	-138.75	-183.75
53	63.75	-75	-71.25	-97.5	-135	-127.5	-150	-191.25
54	52.5	-78.75	-71.25	-101.25	-138.75	-127.5	-150	-195
55	48.75	-90	-60	-93.75	-131.25	-116.25	-138.75	-191.25
56	41.25	-116.25	-48.75	-78.75	-120	-105	-127.5	-180
57	33.75	-135	-45	-78.75	-120	-105	-127.5	-180
58	15	-142.5	-33.75	-67.5	-105	-93.75	-116.25	-168.75
59	-11.25	-127.5	-22.5	-60	-97.5	-86.25	-112.5	-168.75
60	-3.75	-78.75	-26.25	-63.75	-101.25	-90	-120	-172.5
61	11.25	-30	-26.25	-63.75	-105	-93.75	-127.5	-180
62	0	-3.75	-22.5	-60	-105	-93.75	-127.5	-180
63	18.75	37.5	-26.25	-63.75	-108.75	-97.5	-131.25	-180
64	67.5	75	-48.75	-90	-131.25	-123.75	-153.75	-198.75
65	82.5	60	-56.25	-97.5	-138.75	-135	-161.25	-202.5
66	33.75	-18.75	-22.5	-75	-116.25	-108.75	-135	-180
67	18.75	-75	-7.5	-60	-105	-97.5	-123.75	-168.75
68	30	-82.5	3.75	-52.5	-97.5	-90	-112.5	-161.25
69	18.75	-82.5	18.75	-41.25	-86.25	-78.75	-97.5	-146.25
70	-7.5	-82.5	30	-30	-75	-67.5	-93.75	-142.5
71	-18.75	-97.5	41.25	-15	-60	-48.75	-78.75	-131.25
72	-15	-90	56.25	0	-45	-33.75	-63.75	-120
73	-11.25	11.25	41.25	-15	-60	-48.75	-86.25	-138.75
74	-22.5	63.75	15	-41.25	-86.25	-82.5	-116.25	-168.75
75	7.5	26.25	30	-30	-75	-67.5	-101.25	-153.75
76	82.5	-3.75	48.75	-11.25	-56.25	-52.5	-82.5	-127.5
77	101.25	-22.5	33.75	-26.25	-71.25	-67.5	-90	-135
78	60	-22.5	15	-48.75	-93.75	-86.25	-112.5	-157.5
79	52.5	7.5	11.25	-52.5	-97.5	-86.25	-112.5	-153.75
80	71.25	15	15	-41.25	-78.75	-67.5	-90	-131.25
81	71.25	-15	22.5	-22.5	-60	-45	-71.25	-112.5
82	37.5	-18.75	30	-7.5	-41.25	-26.25	-52.5	-101.25
83	-3.75	3.75	7.5	-18.75	-48.75	-30	-56.25	-108.75
84	-18.75	33.75	-22.5	-37.5	-63.75	-48.75	-75	-123.75
85	-3.75	82.5	-41.25	-56.25	-78.75	-63.75	-97.5	-142.5
86	11.25	112.5	-56.25	-67.5	-90	-78.75	-105	-153.75
87	48.75	112.5	-67.5	-75	-97.5	-78.75	-108.75	-150
88	97.5	86.25	-82.5	-90	-112.5	-93.75	-120	-153.75
89	97.5	26.25	-86.25	-105	-127.5	-108.75	-135	-165
90	60	-15	-78.75	-97.5	-123.75	-105	-131.25	-161.25
91	56.25	-22.5	-82.5	-101.25	-123.75	-105	-127.5	-161.25
92	52.5	-52.5	-97.5	-116.25	-138.75	-120	-142.5	-168.75
93	26.25	-105	-93.75	-120	-142.5	-123.75	-146.25	-172.5
94	7.5	-116.25	-78.75	-108.75	-135	-112.5	-135	-165
95	-3.75	-75	-71.25	-101.25	-127.5	-105	-127.5	-157.5
96	-3.75	-26.25	-52.5	-90	-116.25	-93.75	-116.25	-146.25
97	3.75	-3.75	-37.5	-75	-101.25	-78.75	-105	-135
98	-3.75	7.5	-41.25	-75	-101.25	-82.5	-108.75	-135
99	22.5	56.25	-52.5	-90	-116.25	-93.75	-116.25	-142.5
100	67.5	56.25	-71.25	-112.5	-138.75	-120	-138.75	-161.25
101	67.5	-15	-67.5	-112.5	-142.5	-123.75	-138.75	-161.25
102	26.25	-71.25	-67.5	-116.25	-146.25	-127.5	-138.75	-168.75
103	26.25	-86.25	-67.5	-123.75	-153.75	-135	-153.75	-183.75
104	37.5	-105	-71.25	-127.5	-157.5	-138.75	-161.25	-191.25
105	45	-120	-56.25	-116.25	-146.25	-123.75	-142.5	-176.25
106	30	-135	-45	-105	-131.25	-108.75	-127.5	-161.25
107	-15	-150	-45	-101.25	-131.25	-105	-123.75	-161.25
108	-48.75	-138.75	-45	-105	-135	-108.75	-131.25	-168.75
109	-52.5	-93.75	-52.5	-116.25	-142.5	-116.25	-142.5	-180
110	-41.25	-63.75	-63.75	-127.5	-150	-131.25	-157.5	-191.25
111	-15	-67.5	-67.5	-131.25	-157.5	-138.75	-161.25	-195
112	11.25	-90	-71.25	-131.25	-161.25	-138.75	-161.25	-187.5
113	22.5	-123.75	-75	-135	-168.75	-146.25	-161.25	-187.5
114	22.5	-153.75	-78.75	-142.5	-176.25	-157.5	-172.5	-198.75
115	18.75	-165	-82.5	-150	-187.5	-165	-180	-210
116	7.5	-187.5	-78.75	-146.25	-183.75	-161.25	-176.25	-206.25
117	7.5	-202.5	-67.5	-138.75	-172.5	-150	-165	-195
118	-3.75	-168.75	-71.25	-142.5	-176.25	-150	-168.75	-198.75
119	-71.25	-120	-67.5	-138.75	-168.75	-142.5	-161.25	-195
120	-101.25	-75	-56.25	-123.75	-153.75	-127.5	-150	-187.5
121	-67.5	-41.25	-71.25	-135	-161.25	-135	-161.25	-198.75
122	-56.25	-37.5	-86.25	-150	-176.25	-153.75	-180	-213.75
123	-30	-41.25	-97.5	-157.5	-183.75	-161.25	-187.5	-217.5
124	22.5	-63.75	-93.75	-150	-180	-157.5	-180	-202.5
125	33.75	-108.75	-78.75	-138.75	-172.5	-150	-168.75	-191.25
126	-3.75	-135	-71.25	-138.75	-172.5	-150	-168.75	-191.25
127	-11.25	-127.5	-71.25	-135	-168.75	-150	-165	-195
128	-7.5	-135	-71.25	-135	-168.75	-150	-165	-195
129	-18.75	-142.5	-71.25	-131.25	-165	-146.25	-165	-191.25
130	-22.5	-131.25	-56.25	-116.25	-153.75	-135	-153.75	-180
131	-37.5	-157.5	-30	-93.75	-135	-120	-142.5	-172.5
132	-41.25	-191.25	-7.5	-63.75	-123.75	-120	-150	-183.75
133	-33.75	-206.25	30	-26.25	-120	-138.75	-172.5	-206.25
134	-37.5	-217.5	90	26.25	-123.75	-172.5	-217.5	-247.5
135	-11.25	-228.75	165	90	-123.75	-206.25	-258.75	-288.75
136	33.75	-217.5	232.5	150	-135	-247.5	-303.75	-326.25
137	52.5	-157.5	277.5	191.25	-146.25	-288.75	-348.75	-363.75
138	60	-123.75	330	266.25	-112.5	-277.5	-341.25	-363.75
139	101.25	-112.5	401.25	378.75	-22.5	-206.25	-281.25	-311.25
140	138.75	-67.5	472.5	495	82.5	-120	-202.5	-236.25
141	142.5	-11.25	525	588.75	180	-22.5	-108.75	-150
142	172.5	56.25	562.5	671.25	277.5	75	-11.25	-67.5
143	210	165	600	761.25	375	183.75	86.25	18.75
144	217.5	307.5	603.75	840	498.75	326.25	225	135
145	255	435	510	825	600	465	360	258.75
146	285	547.5	352.5	727.5	675	596.25	495	375
147	341.25	690	180	622.5	772.5	761.25	663.75	525
148	472.5	862.5	56.25	566.25	915	963.75	870	708.75
149	547.5	1065	-30	506.25	1053.75	1173.75	1087.5	900
150	521.25	1308.75	-168.75	311.25	1110	1357.5	1301.25	1102.5
151	480	1545	-431.25	-63.75	1053.75	1488.75	1496.25	1297.5
152	465	1721.25	-742.5	-495	967.5	1593.75	1661.25	1462.5
153	446.25	1822.5	-997.5	-825	937.5	1728.75	1826.25	1612.5
154	382.5	1826.25	-1173.75	-1027.5	960	1863.75	1965	1713.75
155	285	1800	-1233.75	-1110	1016.25	1980	2062.5	1758.75
156	217.5	1777.5	-1237.5	-1117.5	1083.75	2058.75	2100	1747.5
157	176.25	1747.5	-1301.25	-1166.25	1068.75	2036.25	2043.75	1665
158	116.25	1638.75	-1376.25	-1245	941.25	1871.25	1871.25	1503.75
159	52.5	1361.25	-1342.5	-1245	761.25	1590	1586.25	1256.25
160	7.5	1023.75	-1260	-1245	487.5	1196.25	1211.25	948.75
161	-15	742.5	-1226.25	-1335	90	716.25	795	637.5
162	-78.75	517.5	-1196.25	-1451.25	-337.5	236.25	397.5	356.25
163	-153.75	345	-1132.5	-1500	-637.5	-120	90	131.25
164	-176.25	247.5	-1038.75	-1410	-701.25	-262.5	-71.25	-7.5
165	-165	202.5	-941.25	-1226.25	-611.25	-273.75	-142.5	-101.25
166	-187.5	176.25	-843.75	-1042.5	-498.75	-247.5	-176.25	-161.25
167	-221.25	123.75	-738.75	-873.75	-401.25	-191.25	-153.75	-161.25
168	-195	71.25	-622.5	-723.75	-315	-120	-93.75	-116.25
169	-142.5	63.75	-521.25	-585	-236.25	-52.5	-37.5	-67.5
170	-108.75	41.25	-435	-450	-157.5	0	3.75	-33.75
171	-75	-26.25	-352.5	-322.5	-75	52.5	45	0
172	-11.25	-78.75	-273.75	-221.25	-11.25	93.75	82.5	33.75
173	11.25	-30	-240	-176.25	-3.75	82.5	63.75	15
174	3.75	78.75	-221.25	-157.5	-18.75	48.75	22.5	-30
175	30	108.75	-172.5	-112.5	0	48.75	18.75	-41.25
176	37.5	78.75	-131.25	-75	11.25	52.5	18.75	-41.25
177	33.75	52.5	-108.75	-60	11.25	48.75	11.25	-45
178	11.25	41.25	-75	-30	22.5	48.75	15	-45
179	-52.5	18.75	-45	-3.75	33.75	52.5	15	-48.75
180	-97.5	-18.75	-26.25	11.25	33.75	52.5	7.5	-56.25
181	-71.25	15	-26.25	11.25	26.25	37.5	-11.25	-71.25
182	-37.5	75	-41.25	-3.75	0	7.5	-41.25	-97.5
183	-22.5	75	-33.75	3.75	0	3.75	-48.75	-97.5
184	33.75	52.5	-30	15	0	0	-45	-90
185	71.25	11.25	-26.25	18.75	0	-7.5	-52.5	-90
186	37.5	-41.25	-15	26.25	-3.75	-11.25	-56.25	-101.25
187	15	-37.5	-11.25	26.25	-7.5	-22.5	-67.5	-112.5
188	18.75	-7.5	-11.25	26.25	-15	-26.25	-71.25	-116.25
189	26.25	0	-7.5	26.25	-15	-26.25	-71.25	-112.5
190	7.5	-11.25	0	33.75	-11.25	-22.5	-63.75	-108.75
191	-37.5	-15	7.5	41.25	-3.75	-15	-63.75	-108.75
192	-48.75	11.25	18.75	60	11.25	0	-52.5	-97.5
193	-22.5	33.75	22.5	67.5	18.75	7.5	-45	-90
194	-3.75	41.25	11.25	60	11.25	-3.75	-52.5	-97.5
195	26.25	30	3.75	56.25	3.75	-11.25	-63.75	-105
196	63.75	-7.5	3.75	56.25	0	-15	-63.75	-105
197	67.5	-48.75	3.75	56.25	0	-22.5	-63.75	-105
198	48.75	-75	7.5	60	-3.75	-18.75	-60	-101.25
199	26.25	-82.5	26.25	75	11.25	-7.5	-52.5	-90
200	11.25	-75	41.25	90	22.5	3.75	-41.25	-82.5
201	26.25	-45	45	93.75	30	7.5	-41.25	-82.5
202	15	-48.75	41.25	93.75	22.5	3.75	-48.75	-93.75
203	-22.5	-90	37.5	93.75	22.5	3.75	-48.75	-97.5
204	-11.25	-90	48.75	108.75	41.25	26.25	-30	-75
205	0	-41.25	52.5	116.25	52.5	37.5	-18.75	-67.5
206	0	30	33.75	101.25	37.5	18.75	-37.5	-86.25
207	15	67.5	15	86.25	22.5	3.75	-52.5	-97.5
208	48.75	60	7.5	86.25	15	0	-56.25	-97.5
209	52.5	18.75	15	90	18.75	0	-52.5	-97.5
210	26.25	-18.75	22.5	97.5	22.5	3.75	-45	-90
211	37.5	-11.25	30	101.25	30	11.25	-37.5	-82.5
212	52.5	-3.75	26.25	105	30	11.25	-37.5	-82.5
213	56.25	3.75	22.5	105	30	11.25	-33.75	-82.5
214	37.5	22.5	22.5	105	33.75	15	-30	-82.5
215	-11.25	26.25	33.75	116.25	45	26.25	-26.25	-78.75
216	-48.75	15	45	131.25	63.75	41.25	-15	-71.25
217	-52.5	7.5	52.5	146.25	78.75	56.25	-3.75	-60
218	-11.25	11.25	60	161.25	90	67.5	7.5	-45
219	18.75	-7.5	60	165	90	67.5	11.25	-41.25
220	41.25	-30	63.75	172.5	97.5	71.25	15	-30
221	67.5	-45	60	168.75	90	63.75	11.25	-33.75
222	56.25	-60	63.75	172.5	93.75	63.75	11.25	-37.5
223	45	-48.75	67.5	176.25	97.5	71.25	15	-33.75
224	63.75	7.5	52.5	165	82.5	60	3.75	-52.5
225	60	-7.5	45	161.25	78.75	52.5	-7.5	-63.75
226	22.5	-86.25	63.75	183.75	101.25	75	11.25	-45
227	-15	-63.75	60	183.75	97.5	67.5	3.75	-60
228	-45	48.75	22.5	146.25	63.75	30	-37.5	-97.5
229	-33.75	131.25	7.5	135	60	26.25	-41.25	-101.25
230	30	195	22.5	161.25	82.5	56.25	-15	-75
231	75	198.75	30	180	101.25	71.25	3.75	-52.5
232	105	93.75	52.5	202.5	123.75	97.5	33.75	-22.5
233	108.75	-30	75	232.5	150	120	56.25	0
234	60	-48.75	71.25	228.75	142.5	112.5	52.5	-7.5
235	52.5	18.75	60	213.75	131.25	101.25	41.25	-18.75
236	90	56.25	63.75	225	142.5	112.5	48.75	-7.5
237	105	37.5	78.75	243.75	157.5	127.5	63.75	3.75
238	78.75	37.5	75	243.75	153.75	123.75	60	-3.75
239	30	75	71.25	240	153.75	120	60	-11.25
240	-7.5	86.25	75	247.5	161.25	127.5	60	-11.25
241	26.25	97.5	78.75	255	168.75	135	63.75	-3.75
242	63.75	101.25	78.75	262.5	172.5	138.75	67.5	3.75
243	67.5	93.75	75	258.75	168.75	131.25	63.75	0
244	108.75	112.5	63.75	247.5	157.5	116.25	48.75	-11.25
245	146.25	108.75	45	232.5	138.75	101.25	37.5	-18.75
246	112.5	63.75	48.75	240	146.25	105	45	-11.25
247	90	45	67.5	258.75	165	123.75	63.75	3.75
248	90	48.75	71.25	262.5	168.75	123.75	67.5	7.5
249	112.5	33.75	78.75	277.5	176.25	135	78.75	18.75
250	131.25	18.75	97.5	296.25	195	153.75	93.75	33.75
251	101.25	41.25	108.75	307.5	206.25	168.75	105	41.25
252	60	48.75	112.5	307.5	206.25	172.5	108.75	41.25
253	67.5	52.5	112.5	311.25	210	176.25	108.75	45
254	67.5	105	97.5	303.75	198.75	161.25	93.75	30
255	60	161.25	78.75	281.25	180	142.5	75	15
256	131.25	168.75	60	266.25	161.25	123.75	60	3.75
257	187.5	127.5	67.5	273.75	165	123.75	63.75	15
258	142.5	82.5	86.25	292.5	176.25	135	75	22.5
259	90	60	105	303.75	183.75	146.25	82.5	30
260	93.75	48.75	108.75	303.75	183.75	142.5	82.5	30
261	101.25	60	112.5	303.75	176.25	138.75	78.75	26.25
262	75	60	120	303.75	180	142.5	78.75	26.25
263	48.75	71.25	120	307.5	180	146.25	78.75	22.5
264	41.25	93.75	127.5	311.25	187.5	153.75	90	30
265	30	82.5	131.25	311.25	183.75	153.75	90	41.25
266	41.25	93.75	123.75	300	172.5	142.5	82.5	37.5
267	75	93.75	116.25	288.75	161.25	131.25	71.25	26.25
268	123.75	37.5	116.25	288.75	153.75	123.75	67.5	30
269	150	0	112.5	285	146.25	116.25	67.5	30
270	150	3.75	112.5	273.75	135	108.75	60	22.5
271	142.5	45	108.75	266.25	123.75	97.5	48.75	11.25
272	120	67.5	108.75	262.5	116.25	93.75	45	7.5
273	123.75	60	123.75	270	123.75	101.25	52.5	15
274	120	86.25	112.5	255	105	82.5	37.5	-3.75
275	63.75	112.5	112.5	243.75	97.5	75	30	-11.25
276	30	108.75	123.75	251.25	101.25	82.5	33.75	-3.75
277	26.25	90	135	258.75	108.75	86.25	37.5	3.75
278	33.75	75	127.5	251.25	97.5	78.75	30	-3.75
279	56.25	71.25	116.25	232.5	78.75	56.25	11.25	-15
280	116.25	75	105	221.25	63.75	45	3.75	-18.75
281	150	56.25	101.25	210	52.5	33.75	-3.75	-22.5
282	123.75	22.5	116.25	217.5	56.25	33.75	0	-22.5
283	123.75	15	131.25	228.75	67.5	45	7.5	-15
284	135	56.25	123.75	213.75	52.5	33.75	0	-26.25
285	120	71.25	108.75	191.25	33.75	18.75	-15	-37.5
286	86.25	41.25	123.75	198.75	41.25	26.25	-7.5	-30
287	22.5	18.75	138.75	206.25	48.75	33.75	-3.75	-26.25
288	-15	41.25	131.25	195	41.25	26.25	-15	-37.5
289	-3.75	90	123.75	187.5	33.75	18.75	-22.5	-45
290	11.25	112.5	135	191.25	37.5	22.5	-22.5	-41.25
291	22.5	101.25	150	202.5	52.5	33.75	-11.25	-26.25
292	52.5	63.75	146.25	195	41.25	22.5	-15	-30
293	71.25	26.25	142.5	180	26.25	11.25	-26.25	-33.75
294	48.75	-11.25	142.5	172.5	22.5	7.5	-26.25	-37.5
295	11.25	-60	161.25	187.5	37.5	22.5	-11.25	-26.25
296	7.5	-71.25	168.75	187.5	41.25	30	-3.75	-22.5
297	3.75	-22.5	150	161.25	18.75	7.5	-22.5	-41.25
298	-52.5	-3.75	135	146.25	7.5	-3.75	-37.5	-56.25
299	-97.5	0	150	157.5	22.5	11.25	-22.5	-48.75
300	-93.75	37.5	165	165	30	26.25	-15	-41.25
301	-78.75	63.75	157.5	153.75	26.25	22.5	-22.5	-48.75
302	-63.75	52.5	157.5	153.75	30	26.25	-18.75	-45
303	-52.5	37.5	150	146.25	26.25	18.75	-22.5	-45
304	-22.5	45	123.75	120	0	-3.75	-45	-56.25
305	7.5	48.75	101.25	93.75	-26.25	-30	-67.5	-75
306	0	-3.75	105	93.75	-26.25	-30	-63.75	-75
307	-11.25	-48.75	120	105	-11.25	-11.25	-41.25	-56.25
308	-7.5	-15	112.5	97.5	-18.75	-18.75	-52.5	-67.5
309	-7.5	45	86.25	71.25	-41.25	-41.25	-78.75	-93.75
310	-48.75	48.75	90	67.5	-37.5	-37.5	-75	-93.75
311	-97.5	3.75	101.25	78.75	-26.25	-22.5	-63.75	-86.25
312	-120	-30	120	93.75	-7.5	-3.75	-45	-63.75
313	-123.75	-56.25	131.25	105	7.5	7.5	-37.5	-56.25
314	-101.25	-45	120	90	-7.5	-7.5	-48.75	-71.25
315	-82.5	15	86.25	56.25	-37.5	-33.75	-75	-93.75
316	-41.25	41.25	60	30	-63.75	-52.5	-90	-101.25
317	-15	15	56.25	26.25	-67.5	-56.25	-86.25	-101.25
318	-30	-7.5	56.25	26.25	-63.75	-52.5	-82.5	-105
319	-48.75	-22.5	52.5	18.75	-71.25	-60	-90	-112.5
320	-63.75	-26.25	56.25	18.75	-67.5	-56.25	-86.25	-105
321	-86.25	-18.75	56.25	18.75	-67.5	-56.25	-86.25	-101.25
322	-97.5	15	52.5	7.5	-75	-63.75	-93.75	-112.5
323	-127.5	30	56.25	11.25	-71.25	-60	-93.75	-108.75
324	-161.25	15	78.75	30	-48.75	-37.5	-71.25	-90
325	-153.75	37.5	82.5	33.75	-41.25	-30	-67.5	-78.75
326	-135	67.5	71.25	22.5	-52.5	-37.5	-75	-90
327	-127.5	67.5	52.5	7.5	-71.25	-60	-93.75	-112.5
328	-97.5	71.25	37.5	-3.75	-78.75	-71.25	-101.25	-112.5
329	-71.25	30	37.5	-3.75	-78.75	-71.25	-97.5	-108.75
330	-101.25	-41.25	60	11.25	-63.75	-56.25	-82.5	-97.5
331	-120	-52.5	78.75	30	-48.75	-37.5	-67.5	-78.75
332	-86.25	-41.25	78.75	30	-41.25	-33.75	-63.75	-78.75
333	-75	-63.75	75	30	-41.25	-30	-56.25	-71.25
334	-105	-120	93.75	48.75	-22.5	-7.5	-33.75	-52.5
335	-142.5	-150	120	75	3.75	18.75	-11.25	-33.75
336	-168.75	-150	123.75	78.75	7.5	18.75	-11.25	-37.5
337	-165	-131.25	116.25	75	7.5	18.75	-15	-41.25
338	-161.25	-52.5	93.75	52.5	-15	-3.75	-33.75	-56.25
339	-161.25	30	63.75	22.5	-41.25	-33.75	-63.75	-78.75
340	-108.75	41.25	56.25	18.75	-48.75	-41.25	-67.5	-78.75
341	-48.75	15	56.25	22.5	-45	-33.75	-60	-67.5
342	-48.75	0	56.25	22.5	-45	-33.75	-60	-71.25
343	-67.5	15	56.25	18.75	-48.75	-37.5	-67.5	-78.75
344	-75	11.25	56.25	18.75	-48.75	-37.5	-63.75	-78.75
345	-90	-41.25	75	37.5	-30	-18.75	-45	-60
346	-120	-56.25	93.75	56.25	-11.25	-3.75	-33.75	-48.75
347	-146.25	3.75	86.25	48.75	-18.75	-11.25	-41.25	-63.75
348	-165	45	90	48.75	-15	-3.75	-41.25	-60
349	-157.5	52.5	101.25	63.75	0	11.25	-26.25	-45
350	-150	41.25	93.75	56.25	-3.75	7.5	-33.75	-52.5
351	-138.75	22.5	78.75	45	-15	-3.75	-45	-63.75
352	-112.5	7.5	63.75	33.75	-30	-22.5	-60	-78.75
353	-86.25	15	48.75	22.5	-45	-33.75	-67.5	-82.5
354	-78.75	18.75	48.75	22.5	-45	-33.75	-63.75	-78.75
355	-90	7.5	67.5	37.5	-26.25	-18.75	-48.75	-71.25
356	-52.5	3.75	82.5	52.5	-7.5	3.75	-26.25	-48.75
357	-33.75	-11.25	82.5	60	-3.75	7.5	-22.5	-41.25
358	-78.75	-11.25	82.5	56.25	-7.5	3.75	-30	-52.5
359	-157.5	0	90	60	0	7.5	-26.25	-48.75
360	-217.5	3.75	97.5	67.5	7.5	18.75	-18.75	-45
361	-225	33.75	101.25	75	15	22.5	-15	-41.25
362	-202.5	71.25	93.75	67.5	7.5	15	-26.25	-45
363	-157.5	75	82.5	60	0	7.5	-33.75	-52.5
364	-101.25	56.25	78.75	56.25	0	3.75	-33.75	-45
365	-82.5	22.5	75	56.25	-3.75	0	-33.75	-41.25
366	-82.5	26.25	82.5	60	3.75	7.5	-22.5	-33.75
367	-86.25	22.5	86.25	63.75	7.5	11.25	-22.5	-33.75
368	-101.25	0	93.75	67.5	11.25	15	-18.75	-33.75
369	-116.25	7.5	90	63.75	3.75	11.25	-22.5	-37.5
370	-153.75	0	97.5	71.25	7.5	15	-18.75	-33.75
371	-176.25	0	105	75	11.25	18.75	-18.75	-37.5
372	-176.25	26.25	90	60	-3.75	3.75	-33.75	-52.5
373	-198.75	22.5	86.25	52.5	-7.5	0	-37.5	-52.5
374	-191.25	7.5	97.5	67.5	7.5	18.75	-15	-30
375	-153.75	33.75	93.75	71.25	11.25	22.5	-15	-26.25
376	-116.25	48.75	82.5	56.25	-3.75	3.75	-30	-37.5
377	-90	37.5	71.25	48.75	-15	-7.5	-37.5	-48.75
378	-116.25	18.75	71.25	41.25	-18.75	-11.25	-41.25	-56.25
379	-142.5	15	63.75	33.75	-26.25	-18.75	-48.75	-60
380	-116.25	41.25	71.25	37.5	-18.75	-11.25	-37.5	-48.75
381	-86.25	52.5	97.5	63.75	7.5	18.75	-11.25	-26.25
382	-123.75	15	116.25	82.5	22.5	37.5	3.75	-11.25
383	-180	-11.25	123.75	90	33.75	45	11.25	-3.75
384	-195	-3.75	120	82.5	26.25	41.25	7.5	-15
385	-195	-7.5	120	86.25	30	45	7.5	-11.25
386	-202.5	22.5	112.5	78.75	22.5	37.5	0	-15
387	-195	60	105	67.5	11.25	26.25	-11.25	-26.25
388	-120	52.5	82.5	45	-11.25	0	-33.75	-45
389	-45	48.75	56.25	22.5	-33.75	-22.5	-48.75	-56.25
390	-71.25	26.25	67.5	33.75	-22.5	-7.5	-33.75	-45
391	-112.5	-3.75	86.25	48.75	-11.25	3.75	-22.5	-33.75
392	-120	-22.5	93.75	48.75	-7.5	7.5	-22.5	-33.75
393	-138.75	-48.75	105	63.75	3.75	22.5	-11.25	-22.5
394	-168.75	-60	112.5	71.25	15	30	0	-15
395	-210	-45	108.75	67.5	7.5	22.5	-7.5	-22.5
396	-221.25	-15	108.75	63.75	3.75	22.5	-11.25	-30
397	-213.75	37.5	90	41.25	-15	3.75	-30	-45
398	-217.5	67.5	78.75	30	-22.5	-3.75	-37.5	-45
399	-202.5	60	78.75	33.75	-18.75	0	-30	-37.5
400	-153.75	52.5	67.5	26.25	-30	-15	-41.25	-41.25
401	-131.25	7.5	56.25	15	-48.75	-30	-52.5	-52.5
402	-142.5	-22.5	63.75	15	-45	-30	-56.25	-56.25
403	-142.5	18.75	71.25	15	-41.25	-26.25	-52.5	-56.25
404	-135	33.75	71.25	18.75	-45	-30	-56.25	-60
405	-168.75	-18.75	71.25	18.75	-48.75	-33.75	-56.25	-60
406	-206.25	-33.75	67.5	11.25	-48.75	-30	-48.75	-56.25
407	-202.5	33.75	63.75	7.5	-52.5	-30	-52.5	-56.25
408	-225	63.75	52.5	0	-56.25	-37.5	-63.75	-75
409	-251.25	30	63.75	3.75	-52.5	-33.75	-63.75	-71.25
410	-217.5	30	75	15	-41.25	-22.5	-52.5	-56.25
411	-191.25	41.25	67.5	15	-41.25	-22.5	-52.5	-52.5
412	-157.5	33.75	60	7.5	-48.75	-26.25	-52.5	-52.5
413	-93.75	22.5	67.5	18.75	-41.25	-22.5	-41.25	-33.75
414	-108.75	-26.25	97.5	41.25	-15	3.75	-15	-7.5
415	-161.25	-97.5	127.5	67.5	11.25	30	7.5	15
416	-165	-123.75	131.25	67.5	11.25	26.25	7.5	11.25
417	-153.75	-22.5	93.75	30	-26.25	-11.25	-30	-30
418	-168.75	108.75	56.25	-11.25	-63.75	-48.75	-71.25	-71.25
419	-221.25	131.25	45	-22.5	-75	-56.25	-82.5	-82.5
420	-258.75	101.25	67.5	0	-52.5	-33.75	-60	-60
421	-270	45	93.75	26.25	-26.25	-7.5	-33.75	-33.75
422	-262.5	11.25	105	37.5	-15	3.75	-22.5	-22.5
423	-228.75	26.25	93.75	26.25	-26.25	-7.5	-33.75	-30
424	-172.5	37.5	67.5	3.75	-48.75	-26.25	-52.5	-41.25
425	-123.75	26.25	56.25	-3.75	-56.25	-37.5	-56.25	-41.25
426	-127.5	18.75	63.75	3.75	-52.5	-33.75	-52.5	-41.25
427	-165	0	71.25	3.75	-52.5	-33.75	-48.75	-41.25
428	-183.75	-30	82.5	11.25	-41.25	-22.5	-41.25	-33.75
429	-187.5	-37.5	93.75	22.5	-30	-11.25	-30	-18.75
430	-206.25	-33.75	90	18.75	-33.75	-15	-30	-26.25
431	-255	-56.25	90	15	-37.5	-15	-33.75	-33.75
432	-300	-52.5	101.25	22.5	-26.25	-3.75	-26.25	-26.25
433	-292.5	-3.75	93.75	18.75	-26.25	-7.5	-30	-26.25
434	-270	18.75	82.5	7.5	-33.75	-15	-37.5	-33.75
435	-228.75	22.5	78.75	7.5	-37.5	-18.75	-37.5	-30
436	-183.75	-3.75	82.5	11.25	-33.75	-15	-37.5	-22.5
437	-157.5	-37.5	86.25	18.75	-30	-11.25	-26.25	-11.25
438	-176.25	-22.5	75	3.75	-45	-26.25	-37.5	-22.5
439	-210	15	48.75	-22.5	-71.25	-56.25	-67.5	-52.5
440	-213.75	7.5	52.5	-22.5	-71.25	-56.25	-67.5	-52.5
441	-195	-30	75	-3.75	-52.5	-33.75	-48.75	-33.75
442	-206.25	-48.75	82.5	3.75	-48.75	-33.75	-45	-33.75
443	-255	-41.25	86.25	3.75	-45	-30	-45	-37.5
444	-303.75	-41.25	90	7.5	-41.25	-26.25	-45	-37.5
445	-296.25	-67.5	97.5	11.25	-33.75	-18.75	-41.25	-33.75
446	-258.75	-90	93.75	15	-33.75	-18.75	-45	-30
447	-240	-30	75	-3.75	-48.75	-37.5	-60	-45
448	-213.75	60	48.75	-30	-71.25	-63.75	-82.5	-63.75
449	-168.75	101.25	48.75	-30	-71.25	-63.75	-78.75	-56.25
450	-165	97.5	60	-18.75	-60	-52.5	-63.75	-45
451	-195	67.5	75	-3.75	-48.75	-37.5	-48.75	-30
452	-198.75	48.75	90	7.5	-37.5	-22.5	-37.5	-18.75
453	-198.75	33.75	93.75	11.25	-37.5	-22.5	-37.5	-18.75
454	-236.25	18.75	97.5	11.25	-37.5	-26.25	-41.25	-30
455	-296.25	33.75	112.5	18.75	-30	-18.75	-41.25	-33.75
456	-326.25	48.75	127.5	33.75	-15	-7.5	-26.25	-22.5
457	-303.75	48.75	135	37.5	-7.5	-3.75	-22.5	-18.75
458	-247.5	71.25	138.75	45	-3.75	7.5	-11.25	-7.5
459	-232.5	71.25	150	52.5	7.5	18.75	0	11.25
460	-213.75	56.25	150	48.75	0	7.5	-11.25	3.75
461	-176.25	75	146.25	45	-7.5	-7.5	-22.5	-7.5
462	-213.75	75	153.75	48.75	-7.5	-7.5	-22.5	-11.25
463	-247.5	48.75	153.75	48.75	-11.25	-7.5	-26.25	-15
464	-240	33.75	153.75	52.5	-7.5	-3.75	-26.25	-11.25
465	-217.5	45	157.5	56.25	0	3.75	-15	0
466	-251.25	37.5	165	60	7.5	11.25	-7.5	7.5
467	-307.5	37.5	180	75	18.75	30	7.5	18.75
468	-330	45	202.5	97.5	45	52.5	30	33.75
469	-337.5	41.25	213.75	112.5	56.25	63.75	41.25	45
470	-318.75	78.75	191.25	93.75	37.5	45	18.75	26.25
471	-270	138.75	161.25	71.25	18.75	22.5	0	11.25
472	-210	138.75	146.25	67.5	15	26.25	7.5	22.5
473	-165	112.5	138.75	71.25	22.5	33.75	18.75	41.25
474	-191.25	101.25	123.75	63.75	18.75	26.25	11.25	33.75
475	-210	112.5	90	33.75	-7.5	3.75	-11.25	3.75
476	-180	108.75	82.5	30	-11.25	0	-11.25	3.75
477	-195	90	93.75	41.25	0	7.5	-3.75	15
478	-217.5	120	90	37.5	-3.75	7.5	-7.5	11.25
479	-225	176.25	78.75	26.25	-11.25	3.75	-7.5	3.75
480	-266.25	157.5	71.25	22.5	-11.25	7.5	-7.5	7.5
481	-285	71.25	71.25	18.75	-11.25	11.25	-3.75	15
482	-240	56.25	52.5	3.75	-26.25	-7.5	-18.75	0
483	-191.25	90	48.75	-3.75	-30	-11.25	-18.75	3.75
484	-172.5	71.25	60	7.5	-22.5	3.75	0	26.25
485	-168.75	18.75	63.75	3.75	-26.25	-3.75	-3.75	26.25
486	-183.75	18.75	63.75	-3.75	-37.5	-15	-18.75	11.25
487	-206.25	52.5	71.25	3.75	-33.75	-11.25	-18.75	3.75
488	-210	56.25	82.5	18.75	-18.75	0	-7.5	11.25
489	-225	33.75	105	37.5	3.75	18.75	15	33.75
490	-266.25	-3.75	123.75	52.5	15	30	26.25	45
491	-307.5	-18.75	135	63.75	22.5	33.75	30	45
492	-333.75	18.75	123.75	48.75	3.75	15	7.5	18.75
493	-333.75	67.5	108.75	26.25	-15	-3.75	-15	-3.75
494	-318.75	63.75	108.75	22.5	-15	-7.5	-18.75	-3.75
495	-303.75	22.5	108.75	22.5	-15	-3.75	-15	0
496	-258.75	-7.5	97.5	18.75	-22.5	-11.25	-18.75	0
497	-221.25	-30	82.5	0	-41.25	-30	-33.75	-11.25
498	-251.25	-41.25	67.5	-22.5	-63.75	-52.5	-56.25	-33.75
499	-281.25	-33.75	63.75	-33.75	-75	-67.5	-67.5	-45
500	-292.5	-37.5	63.75	-33.75	-78.75	-67.5	-67.5	-48.75
501	-315	-60	71.25	-33.75	-78.75	-67.5	-67.5	-45
502	-337.5	-86.25	71.25	-33.75	-78.75	-71.25	-71.25	-52.5
503	-326.25	-48.75	82.5	-18.75	-63.75	-60	-60	-45
504	-307.5	37.5	90	-11.25	-52.5	-45	-48.75	-33.75
505	-345	56.25	86.25	-15	-56.25	-48.75	-52.5	-37.5
506	-382.5	22.5	90	-7.5	-48.75	-41.25	-45	-22.5
507	-333.75	3.75	97.5	3.75	-33.75	-26.25	-30	-7.5
508	-258.75	-22.5	105	15	-26.25	-18.75	-26.25	3.75
509	-243.75	-67.5	105	15	-30	-22.5	-26.25	3.75
510	-266.25	-78.75	101.25	3.75	-37.5	-33.75	-30	-3.75
511	-277.5	-56.25	78.75	-15	-60	-52.5	-48.75	-26.25
512	-300	-60	75	-22.5	-67.5	-60	-60	-41.25
513	-292.5	-41.25	78.75	-18.75	-63.75	-56.25	-60	-37.5
514	-296.25	3.75	82.5	-15	-56.25	-48.75	-52.5	-30
515	-356.25	11.25	86.25	-11.25	-52.5	-48.75	-52.5	-30
516	-393.75	7.5	97.5	0	-41.25	-33.75	-41.25	-22.5
517	-382.5	11.25	101.25	7.5	-33.75	-26.25	-30	-11.25
518	-360	3.75	93.75	3.75	-33.75	-26.25	-30	-7.5
519	-330	11.25	93.75	3.75	-33.75	-26.25	-30	-11.25
520	-281.25	18.75	86.25	-3.75	-45	-37.5	-37.5	-15
521	-247.5	3.75	82.5	-7.5	-52.5	-48.75	-45	-18.75
522	-262.5	-26.25	97.5	3.75	-45	-48.75	-48.75	-26.25
523	-296.25	-82.5	123.75	26.25	-41.25	-52.5	-56.25	-33.75
524	-300	-112.5	161.25	63.75	-33.75	-63.75	-75	-56.25
525	-281.25	-86.25	213.75	112.5	-37.5	-93.75	-112.5	-97.5
526	-296.25	-75	285	172.5	-37.5	-123.75	-153.75	-142.5
527	-348.75	-75	363.75	240	-33.75	-146.25	-187.5	-176.25
528	-363.75	-52.5	442.5	311.25	-7.5	-142.5	-191.25	-176.25
529	-322.5	-26.25	513.75	408.75	56.25	-105	-157.5	-146.25
530	-292.5	-18.75	577.5	510	131.25	-52.5	-112.5	-108.75
531	-255	22.5	626.25	600	206.25	3.75	-60	-60
532	-157.5	112.5	660	682.5	285	78.75	11.25	11.25
533	-78.75	153.75	682.5	742.5	360	157.5	86.25	82.5
534	-52.5	168.75	723.75	825	453.75	255	183.75	168.75
535	-33.75	262.5	738.75	915	562.5	375	296.25	266.25
536	3.75	423.75	678.75	922.5	652.5	491.25	416.25	367.5
537	30	543.75	558.75	855	727.5	622.5	551.25	487.5
538	52.5	652.5	420	776.25	828.75	783.75	716.25	633.75
539	90	825	300	723.75	960	975	907.5	795
540	116.25	1042.5	217.5	690	1095	1173.75	1106.25	971.25
541	146.25	1286.25	82.5	555	1170	1350	1301.25	1155
542	168.75	1545	-153.75	258.75	1155	1492.5	1492.5	1350
543	187.5	1747.5	-438.75	-108.75	1098.75	1608.75	1672.5	1537.5
544	240	1845	-690	-427.5	1068.75	1732.5	1833.75	1695
545	251.25	1841.25	-873.75	-641.25	1095	1867.5	1976.25	1815
546	161.25	1766.25	-963.75	-746.25	1147.5	1983.75	2081.25	1875
547	67.5	1691.25	-971.25	-772.5	1211.25	2070	2133.75	1875
548	30	1646.25	-1023.75	-825	1222.5	2081.25	2107.5	1815
549	-37.5	1571.25	-1132.5	-941.25	1117.5	1961.25	1976.25	1680
550	-157.5	1365	-1140	-990	948.75	1713.75	1717.5	1443.75
551	-288.75	1076.25	-1035	-967.5	727.5	1376.25	1380	1147.5
552	-401.25	828.75	-963.75	-1031.25	378.75	948.75	1001.25	866.25
553	-468.75	626.25	-941.25	-1162.5	-48.75	468.75	603.75	585
554	-513.75	453.75	-907.5	-1245	-386.25	78.75	266.25	333.75
555	-532.5	330	-832.5	-1203.75	-498.75	-101.25	82.5	180
556	-487.5	243.75	-746.25	-1057.5	-446.25	-131.25	3.75	93.75
557	-461.25	172.5	-667.5	-881.25	-341.25	-105	-15	52.5
558	-465	127.5	-577.5	-723.75	-243.75	-52.5	3.75	56.25
559	-442.5	116.25	-491.25	-600	-180	0	45	75
560	-416.25	127.5	-416.25	-506.25	-150	22.5	63.75	86.25
561	-405	123.75	-326.25	-390	-97.5	56.25	86.25	105
562	-390	123.75	-228.75	-255	-11.25	112.5	135	138.75
563	-397.5	127.5	-146.25	-135	67.5	168.75	180	176.25
564	-431.25	135	-90	-67.5	97.5	180	180	168.75
565	-416.25	176.25	-41.25	-15	116.25	180	168.75	161.25
566	-356.25	191.25	11.25	45	150	198.75	180	172.5
567	-311.25	183.75	63.75	93.75	176.25	210	187.5	176.25
568	-270	195	78.75	97.5	161.25	183.75	165	157.5
569	-232.5	176.25	78.75	93.75	142.5	157.5	138.75	138.75
570	-258.75	135	97.5	108.75	138.75	150	135	127.5
571	-277.5	142.5	116.25	123.75	138.75	146.25	127.5	116.25
572	-273.75	138.75	123.75	123.75	131.25	135	116.25	105
573	-277.5	86.25	135	135	131.25	123.75	108.75	97.5
574	-303.75	52.5	142.5	138.75	120	105	86.25	78.75
575	-352.5	63.75	142.5	131.25	105	86.25	63.75	60
576	-378.75	86.25	146.25	131.25	101.25	82.5	63.75	60
577	-371.25	97.5	146.25	138.75	101.25	86.25	63.75	60
578	-371.25	93.75	142.5	142.5	97.5	82.5	60	56.25
579	-367.5	101.25	142.5	142.5	97.5	82.5	56.25	52.5
580	-330	97.5	146.25	150	101.25	78.75	56.25	56.25
581	-303.75	45	146.25	153.75	97.5	75	52.5	56.25
582	-292.5	0	157.5	161.25	101.25	75	56.25	56.25
583	-296.25	7.5	176.25	180	116.25	93.75	71.25	75
584	-311.25	0	187.5	191.25	123.75	105	82.5	86.25
585	-300	-52.5	206.25	206.25	138.75	123.75	108.75	108.75
586	-307.5	-41.25	210	213.75	142.5	127.5	108.75	105
587	-348.75	60	187.5	191.25	120	101.25	78.75	67.5
588	-378.75	105	183.75	183.75	112.5	93.75	67.5	52.5
589	-390	86.25	187.5	187.5	116.25	93.75	63.75	52.5
590	-375	105	172.5	176.25	101.25	78.75	52.5	45
591	-360	120	168.75	180	108.75	86.25	60	60
592	-315	93.75	180	195	120	97.5	78.75	78.75
593	-236.25	82.5	176.25	195	116.25	93.75	75	78.75
594	-225	90	176.25	191.25	112.5	90	75	75
595	-277.5	75	176.25	191.25	112.5	90	71.25	71.25
596	-288.75	63.75	183.75	198.75	116.25	93.75	71.25	71.25
597	-266.25	75	176.25	187.5	101.25	78.75	56.25	56.25
598	-296.25	67.5	168.75	180	97.5	71.25	45	45
599	-337.5	67.5	187.5	202.5	116.25	93.75	71.25	60
600	-330	112.5	198.75	217.5	131.25	108.75	86.25	75
601	-348.75	142.5	191.25	213.75	131.25	112.5	86.25	78.75
602	-378.75	123.75	191.25	221.25	138.75	116.25	90	82.5
603	-363.75	101.25	195	228.75	146.25	123.75	97.5	90
604	-326.25	112.5	198.75	236.25	150	127.5	101.25	97.5
605	-266.25	131.25	202.5	243.75	153.75	131.25	108.75	105
606	-221.25	142.5	202.5	247.5	157.5	135	112.5	108.75
607	-225	131.25	206.25	247.5	157.5	138.75	116.25	108.75
608	-262.5	93.75	221.25	262.5	172.5	153.75	131.25	123.75
609	-281.25	67.5	228.75	273.75	180	165	142.5	135
610	-300	71.25	221.25	270	176.25	157.5	131.25	123.75
611	-330	112.5	213.75	266.25	176.25	153.75	131.25	116.25
612	-341.25	131.25	213.75	266.25	176.25	161.25	135	120
613	-333.75	90	228.75	285	198.75	176.25	150	135
614	-326.25	60	236.25	296.25	210	187.5	157.5	146.25
615	-315	101.25	228.75	292.5	202.5	180	150	135
616	-281.25	123.75	217.5	288.75	195	172.5	142.5	131.25
617	-247.5	97.5	206.25	277.5	183.75	157.5	135	127.5
618	-251.25	97.5	206.25	277.5	183.75	153.75	127.5	120
619	-281.25	101.25	206.25	277.5	183.75	153.75	131.25	120
620	-300	90	202.5	273.75	180	150	127.5	116.25
621	-288.75	75	210	288.75	191.25	161.25	135	123.75
622	-285	63.75	221.25	303.75	202.5	172.5	146.25	135
623	-296.25	93.75	225	311.25	210	180	153.75	138.75
624	-307.5	168.75	213.75	303.75	206.25	180	150	131.25
625	-315	213.75	202.5	300	206.25	180	146.25	131.25
626	-311.25	183.75	206.25	307.5	213.75	187.5	150	135
627	-300	112.5	210	315	221.25	195	157.5	138.75
628	-270	71.25	210	322.5	228.75	198.75	165	150
629	-270	37.5	210	326.25	228.75	198.75	176.25	161.25
630	-273.75	30	217.5	330	236.25	206.25	183.75	168.75
631	-232.5	78.75	232.5	348.75	255	228.75	202.5	183.75
632	-217.5	112.5	240	360	266.25	240	210	191.25
633	-213.75	131.25	236.25	360	262.5	236.25	206.25	183.75
634	-228.75	142.5	232.5	356.25	262.5	232.5	206.25	183.75
635	-273.75	142.5	228.75	348.75	255	228.75	202.5	180
636	-307.5	157.5	232.5	356.25	262.5	236.25	206.25	183.75
637	-281.25	202.5	236.25	363.75	270	243.75	213.75	191.25
638	-258.75	213.75	236.25	367.5	273.75	247.5	206.25	187.5
639	-273.75	210	228.75	363.75	266.25	232.5	191.25	165
640	-236.25	240	206.25	341.25	240	206.25	165	146.25
641	-161.25	221.25	187.5	330	225	191.25	157.5	142.5
642	-172.5	142.5	198.75	341.25	236.25	202.5	172.5	157.5
643	-206.25	150	225	360	258.75	225	198.75	180
644	-225	187.5	221.25	360	255	225	198.75	180
645	-217.5	161.25	210	348.75	243.75	217.5	187.5	172.5
646	-213.75	142.5	221.25	360	255	225	198.75	180
647	-266.25	157.5	232.5	378.75	273.75	240	213.75	195
648	-300	183.75	243.75	382.5	277.5	251.25	221.25	198.75
649	-322.5	176.25	251.25	386.25	273.75	255	225	202.5
650	-322.5	172.5	247.5	386.25	270	247.5	217.5	195
651	-285	198.75	228.75	371.25	255	232.5	202.5	187.5
652	-225	206.25	217.5	360	247.5	221.25	195	183.75
653	-176.25	165	225	371.25	251.25	225	198.75	195
654	-161.25	150	240	378.75	258.75	232.5	210	202.5
655	-180	180	243.75	375	255	232.5	213.75	202.5
656	-217.5	191.25	232.5	356.25	236.25	213.75	191.25	183.75
657	-228.75	135	225	352.5	221.25	198.75	180	172.5
658	-236.25	78.75	240	360	232.5	210	191.25	180
659	-270	131.25	247.5	356.25	228.75	206.25	187.5	176.25
660	-296.25	180	247.5	352.5	217.5	198.75	176.25	165
661	-292.5	157.5	258.75	360	225	206.25	187.5	176.25
662	-266.25	157.5	262.5	371.25	236.25	213.75	195	187.5
663	-255	176.25	262.5	375	236.25	213.75	191.25	191.25
664	-225	168.75	251.25	360	217.5	195	176.25	183.75
665	-183.75	135	247.5	345	198.75	180	168.75	180
666	-195	90	251.25	341.25	195	176.25	168.75	180
667	-225	82.5	251.25	337.5	191.25	172.5	168.75	176.25
668	-228.75	123.75	240	326.25	176.25	161.25	161.25	168.75
669	-232.5	146.25	232.5	315	161.25	150	153.75	165
670	-240	135	247.5	318.75	165	157.5	161.25	172.5
671	-243.75	138.75	266.25	330	172.5	168.75	176.25	183.75
672	-270	142.5	273.75	337.5	180	176.25	180	183.75
673	-277.5	146.25	277.5	337.5	183.75	176.25	172.5	180
674	-273.75	146.25	281.25	333.75	180	168.75	165	172.5
675	-266.25	153.75	266.25	318.75	157.5	150	146.25	157.5
676	-225	165	240	288.75	131.25	120	123.75	138.75
677	-202.5	127.5	236.25	277.5	120	108.75	116.25	135
678	-228.75	82.5	255	288.75	127.5	116.25	123.75	142.5
679	-262.5	82.5	262.5	292.5	131.25	120	127.5	146.25
680	-258.75	105	262.5	285	120	112.5	120	135
681	-255	127.5	262.5	281.25	116.25	108.75	116.25	131.25
682	-277.5	142.5	270	285	123.75	116.25	123.75	138.75
683	-326.25	127.5	273.75	285	127.5	116.25	123.75	138.75
684	-367.5	86.25	285	288.75	131.25	116.25	123.75	135
685	-378.75	37.5	292.5	292.5	135	123.75	127.5	138.75
686	-356.25	37.5	300	296.25	138.75	127.5	131.25	142.5
687	-315	105	288.75	277.5	123.75	112.5	120	135
688	-281.25	161.25	266.25	258.75	105	97.5	105	123.75
689	-270	146.25	251.25	243.75	93.75	86.25	97.5	116.25
690	-288.75	123.75	251.25	240	93.75	82.5	93.75	108.75
691	-322.5	108.75	255	236.25	90	86.25	93.75	101.25
692	-356.25	90	255	228.75	86.25	82.5	86.25	93.75
693	-371.25	90	266.25	236.25	90	82.5	90	97.5
694	-382.5	90	266.25	228.75	90	82.5	86.25	97.5
695	-382.5	108.75	273.75	228.75	93.75	86.25	90	97.5
696	-405	131.25	288.75	247.5	112.5	101.25	105	112.5
697	-416.25	116.25	285	247.5	116.25	101.25	101.25	112.5
698	-393.75	101.25	277.5	240	108.75	97.5	97.5	105
699	-378.75	112.5	270	228.75	101.25	90	90	97.5
700	-345	127.5	258.75	213.75	90	78.75	82.5	90
701	-326.25	97.5	240	195	71.25	63.75	71.25	82.5
702	-348.75	67.5	236.25	187.5	71.25	63.75	71.25	82.5
703	-378.75	101.25	232.5	180	67.5	63.75	71.25	78.75
704	-378.75	142.5	225	176.25	63.75	67.5	75	82.5
705	-363.75	135	225	172.5	63.75	67.5	75	86.25
706	-378.75	101.25	236.25	180	71.25	75	82.5	90
707	-412.5	75	255	195	90	90	97.5	101.25
708	-438.75	86.25	258.75	198.75	93.75	93.75	97.5	101.25
709	-450	97.5	258.75	198.75	97.5	93.75	97.5	105
710	-442.5	67.5	270	202.5	105	101.25	105	116.25
711	-450	-7.5	281.25	217.5	120	116.25	116.25	123.75
712	-427.5	-18.75	273.75	206.25	105	105	108.75	120
713	-386.25	15	236.25	168.75	71.25	71.25	78.75	97.5
714	-375	7.5	221.25	153.75	60	56.25	71.25	86.25
715	-405	7.5	236.25	165	67.5	67.5	82.5	93.75
716	-427.5	15	232.5	153.75	63.75	67.5	78.75	90
717	-405	26.25	236.25	157.5	71.25	71.25	78.75	90
718	-408.75	45	255	176.25	82.5	78.75	86.25	93.75
719	-457.5	48.75	255	176.25	86.25	82.5	86.25	93.75
720	-487.5	48.75	247.5	168.75	78.75	82.5	82.5	86.25
721	-498.75	52.5	243.75	161.25	75	78.75	78.75	82.5
722	-491.25	60	243.75	165	78.75	82.5	86.25	90
723	-476.25	56.25	240	165	78.75	82.5	86.25	93.75
724	-431.25	63.75	236.25	161.25	75	75	78.75	90
725	-386.25	63.75	225	150	63.75	60	71.25	82.5
726	-390	60	217.5	146.25	56.25	52.5	63.75	75
727	-401.25	71.25	221.25	146.25	56.25	52.5	63.75	75
728	-408.75	52.5	221.25	142.5	60	56.25	67.5	78.75
729	-416.25	37.5	228.75	153.75	71.25	67.5	78.75	90
730	-427.5	45	236.25	165	82.5	78.75	86.25	97.5
731	-468.75	33.75	240	165	82.5	82.5	90	101.25
732	-506.25	37.5	240	168.75	90	93.75	97.5	105
733	-498.75	63.75	243.75	180	101.25	101.25	105	108.75
734	-461.25	86.25	247.5	187.5	108.75	105	108.75	108.75
735	-450	78.75	243.75	180	101.25	97.5	101.25	101.25
736	-435	97.5	225	157.5	82.5	78.75	86.25	93.75
737	-412.5	153.75	195	123.75	48.75	48.75	56.25	67.5
738	-408.75	176.25	180	116.25	37.5	33.75	37.5	45
739	-420	157.5	187.5	123.75	45	41.25	45	48.75
740	-438.75	112.5	202.5	135	52.5	52.5	56.25	63.75
741	-450	67.5	213.75	150	67.5	63.75	75	78.75
742	-453.75	45	232.5	165	86.25	82.5	93.75	101.25
743	-472.5	15	251.25	187.5	112.5	112.5	120	123.75
744	-506.25	3.75	270	210	138.75	138.75	142.5	142.5
745	-495	41.25	281.25	217.5	146.25	150	153.75	150
746	-472.5	30	277.5	217.5	150	150	153.75	150
747	-453.75	18.75	277.5	221.25	153.75	153.75	153.75	157.5
748	-405	75	258.75	206.25	135	135	138.75	142.5
749	-356.25	112.5	228.75	176.25	105	105	108.75	116.25
750	-386.25	93.75	217.5	161.25	86.25	86.25	93.75	97.5
751	-416.25	101.25	217.5	157.5	82.5	82.5	90	97.5
752	-408.75	97.5	228.75	172.5	97.5	93.75	105	112.5
753	-416.25	63.75	236.25	176.25	105	101.25	108.75	116.25
754	-416.25	52.5	236.25	180	105	105	112.5	120
755	-427.5	26.25	255	202.5	131.25	131.25	138.75	146.25
756	-472.5	7.5	273.75	217.5	150	150	153.75	157.5
757	-476.25	90	262.5	210	138.75	142.5	138.75	142.5
758	-438.75	153.75	243.75	191.25	120	123.75	123.75	127.5
759	-453.75	93.75	247.5	195	123.75	123.75	127.5	131.25
760	-450	56.25	255	202.5	127.5	123.75	123.75	135
761	-397.5	63.75	247.5	191.25	116.25	112.5	112.5	131.25
762	-416.25	48.75	236.25	183.75	108.75	105	112.5	127.5
763	-446.25	37.5	236.25	183.75	108.75	108.75	112.5	123.75
764	-427.5	33.75	251.25	187.5	112.5	116.25	123.75	131.25
765	-431.25	52.5	243.75	183.75	108.75	108.75	116.25	123.75
766	-446.25	93.75	236.25	180	105	108.75	112.5	116.25
767	-480	97.5	247.5	183.75	112.5	116.25	123.75	123.75
768	-525	86.25	258.75	195	120	127.5	131.25	131.25
769	-536.25	97.5	262.5	202.5	127.5	131.25	131.25	138.75
770	-513.75	108.75	255	198.75	123.75	127.5	131.25	138.75
771	-480	127.5	243.75	187.5	116.25	116.25	120	135
772	-453.75	112.5	232.5	172.5	101.25	105	108.75	127.5
773	-416.25	60	221.25	157.5	86.25	90	101.25	120
774	-405	26.25	225	157.5	86.25	86.25	101.25	120
775	-423.75	37.5	236.25	165	93.75	93.75	108.75	120
776	-435	67.5	232.5	161.25	90	93.75	105	112.5
777	-435	78.75	225	157.5	82.5	90	101.25	108.75
778	-461.25	75	225	153.75	82.5	90	101.25	101.25
779	-502.5	112.5	228.75	150	82.5	86.25	97.5	97.5
780	-513.75	168.75	225	150	86.25	90	97.5	101.25
781	-491.25	191.25	213.75	146.25	78.75	86.25	93.75	105
782	-491.25	180	210	142.5	78.75	82.5	86.25	101.25
783	-483.75	161.25	213.75	146.25	78.75	86.25	90	108.75
784	-435	168.75	210	142.5	78.75	86.25	93.75	112.5
785	-397.5	131.25	206.25	131.25	67.5	75	90	116.25
786	-416.25	7.5	228.75	153.75	90	97.5	112.5	135
787	-442.5	-37.5	251.25	176.25	108.75	112.5	127.5	142.5
788	-442.5	7.5	243.75	161.25	93.75	101.25	116.25	131.25
789	-431.25	41.25	236.25	150	78.75	90	105	123.75
790	-442.5	63.75	228.75	138.75	71.25	78.75	97.5	112.5
791	-491.25	63.75	221.25	127.5	60	71.25	86.25	105
792	-521.25	71.25	213.75	120	56.25	67.5	78.75	97.5
793	-528.75	101.25	206.25	120	56.25	63.75	75	93.75
794	-540	116.25	195	108.75	45	48.75	60	82.5
795	-540	127.5	195	108.75	48.75	56.25	67.5	93.75
796	-472.5	142.5	206.25	123.75	63.75	75	90	120
797	-416.25	108.75	206.25	123.75	60	71.25	90	120
798	-427.5	26.25	210	120	56.25	67.5	90	116.25
799	-438.75	-41.25	228.75	135	75	86.25	108.75	131.25
800	-431.25	-18.75	240	146.25	86.25	101.25	123.75	142.5
801	-416.25	52.5	236.25	142.5	82.5	93.75	120	138.75
802	-427.5	60	236.25	138.75	75	86.25	112.5	123.75
803	-498.75	26.25	243.75	142.5	75	90	108.75	123.75
804	-558.75	18.75	251.25	150	86.25	101.25	120	135
805	-551.25	-7.5	255	157.5	97.5	112.5	131.25	146.25
806	-517.5	-37.5	262.5	168.75	108.75	123.75	138.75	157.5
807	-517.5	0	251.25	150	93.75	101.25	120	142.5
808	-491.25	71.25	221.25	116.25	60	67.5	86.25	112.5
809	-446.25	86.25	202.5	101.25	41.25	48.75	71.25	105
810	-438.75	63.75	191.25	86.25	26.25	37.5	60	93.75
811	-453.75	60	191.25	86.25	26.25	37.5	63.75	90
812	-457.5	67.5	195	90	30	41.25	67.5	93.75
813	-461.25	63.75	213.75	105	45	60	82.5	112.5
814	-495	26.25	221.25	112.5	52.5	67.5	86.25	116.25
815	-547.5	11.25	225	112.5	52.5	63.75	82.5	108.75
816	-573.75	30	225	112.5	56.25	71.25	90	108.75
817	-566.25	48.75	228.75	116.25	60	78.75	97.5	120
818	-547.5	52.5	225	116.25	63.75	78.75	97.5	123.75
819	-551.25	37.5	217.5	108.75	56.25	71.25	90	116.25
820	-536.25	37.5	206.25	97.5	41.25	60	75	101.25
821	-468.75	48.75	187.5	78.75	22.5	37.5	56.25	90
822	-453.75	37.5	187.5	75	18.75	33.75	56.25	93.75
823	-491.25	33.75	195	82.5	26.25	41.25	63.75	93.75
824	-480	78.75	202.5	86.25	30	48.75	67.5	97.5
825	-453.75	97.5	191.25	75	18.75	33.75	56.25	82.5
826	-472.5	78.75	191.25	71.25	15	30	48.75	75
827	-513.75	93.75	198.75	78.75	18.75	33.75	56.25	78.75
828	-551.25	131.25	198.75	75	18.75	37.5	56.25	78.75
829	-566.25	146.25	195	75	18.75	41.25	60	82.5
830	-555	123.75	191.25	75	18.75	41.25	60	86.25
831	-543.75	86.25	195	75	22.5	41.25	56.25	82.5
832	-510	56.25	210	86.25	30	48.75	63.75	93.75
833	-476.25	-7.5	213.75	90	30	48.75	67.5	105
834	-495	-60	206.25	90	30	45	67.5	108.75
835	-498.75	-52.5	210	93.75	33.75	56.25	82.5	120
836	-461.25	-33.75	221.25	105	45	71.25	97.5	135
837	-438.75	-11.25	232.5	116.25	52.5	78.75	101.25	135
838	-480	-7.5	228.75	108.75	48.75	71.25	93.75	123.75
839	-570	-26.25	228.75	108.75	45	67.5	90	120
840	-633.75	-18.75	236.25	112.5	48.75	75	93.75	120
841	-630	15	221.25	101.25	41.25	63.75	82.5	105
842	-558.75	60	210	93.75	33.75	60	78.75	108.75
843	-525	75	213.75	97.5	41.25	60	78.75	112.5
844	-510	86.25	198.75	93.75	30	48.75	67.5	105
845	-453.75	108.75	180	75	11.25	33.75	52.5	101.25
846	-431.25	116.25	172.5	63.75	3.75	26.25	48.75	90
847	-453.75	90	187.5	75	11.25	33.75	52.5	90
848	-457.5	63.75	210	86.25	22.5	41.25	60	101.25
849	-476.25	75	198.75	75	11.25	30	48.75	90
850	-525	82.5	191.25	71.25	7.5	26.25	45	82.5
851	-573.75	45	210	86.25	22.5	45	63.75	97.5
852	-588.75	18.75	225	108.75	45	75	93.75	123.75
853	-566.25	15	240	120	60	90	112.5	146.25
854	-558.75	41.25	236.25	116.25	56.25	86.25	101.25	135
855	-562.5	67.5	217.5	101.25	41.25	71.25	82.5	112.5
856	-521.25	56.25	206.25	90	30	56.25	75	108.75
857	-468.75	37.5	198.75	86.25	22.5	48.75	71.25	112.5
858	-476.25	18.75	198.75	82.5	18.75	45	67.5	105
859	-517.5	18.75	202.5	82.5	18.75	45	63.75	97.5
860	-528.75	22.5	202.5	86.25	18.75	45	63.75	93.75
861	-540	-7.5	221.25	101.25	33.75	60	78.75	112.5
862	-558.75	-33.75	247.5	120	48.75	75	93.75	127.5
863	-588.75	-3.75	255	120	52.5	78.75	93.75	127.5
864	-596.25	67.5	262.5	131.25	63.75	86.25	105	135
865	-566.25	105	270	142.5	71.25	97.5	112.5	146.25
866	-562.5	97.5	273.75	142.5	75	101.25	116.25	153.75
867	-558.75	105	277.5	142.5	75	105	120	153.75
868	-513.75	131.25	273.75	138.75	71.25	97.5	116.25	150
869	-472.5	123.75	266.25	131.25	60	86.25	97.5	138.75
870	-476.25	93.75	262.5	131.25	56.25	78.75	97.5	131.25
871	-506.25	82.5	266.25	127.5	56.25	78.75	97.5	127.5
872	-510	90	262.5	123.75	52.5	67.5	82.5	116.25
873	-495	86.25	262.5	123.75	48.75	67.5	82.5	116.25
874	-506.25	75	270	131.25	56.25	75	93.75	127.5
875	-540	93.75	277.5	135	56.25	75	90	123.75
876	-558.75	135	277.5	135	56.25	71.25	86.25	116.25
877	-566.25	161.25	277.5	138.75	60	75	90	120
878	-566.25	138.75	281.25	146.25	71.25	86.25	101.25	135
879	-562.5	101.25	292.5	153.75	78.75	97.5	105	142.5
880	-517.5	82.5	285	157.5	86.25	101.25	112.5	150
881	-468.75	71.25	273.75	157.5	93.75	112.5	131.25	172.5
882	-472.5	90	258.75	161.25	97.5	120	138.75	176.25
883	-476.25	112.5	247.5	157.5	97.5	123.75	142.5	172.5
884	-487.5	101.25	236.25	142.5	90	120	138.75	172.5
885	-502.5	90	221.25	127.5	71.25	105	127.5	161.25
886	-491.25	90	217.5	135	78.75	108.75	131.25	165
887	-498.75	75	221.25	142.5	90	116.25	138.75	172.5
888	-528.75	112.5	206.25	123.75	75	101.25	123.75	153.75
889	-543.75	172.5	165	86.25	41.25	67.5	90	123.75
890	-536.25	165	161.25	78.75	37.5	67.5	90	131.25
891	-510	138.75	180	101.25	60	93.75	116.25	161.25
892	-450	93.75	198.75	116.25	75	108.75	135	180
893	-420	3.75	213.75	123.75	75	108.75	138.75	187.5
894	-461.25	-3.75	206.25	105	56.25	86.25	116.25	165
895	-506.25	71.25	183.75	82.5	30	60	90	131.25
896	-510	93.75	180	82.5	26.25	52.5	78.75	116.25
897	-483.75	90	195	93.75	37.5	60	82.5	123.75
898	-495	60	210	108.75	52.5	75	101.25	138.75
899	-547.5	33.75	217.5	116.25	60	86.25	108.75	146.25
900	-566.25	71.25	221.25	120	63.75	93.75	112.5	146.25
901	-543.75	97.5	225	120	67.5	93.75	112.5	150
902	-536.25	93.75	221.25	112.5	60	86.25	105	146.25
903	-555	78.75	210	101.25	45	71.25	90	131.25
904	-536.25	82.5	198.75	93.75	37.5	60	78.75	123.75
905	-476.25	86.25	176.25	71.25	11.25	30	48.75	97.5
906	-468.75	56.25	165	48.75	-11.25	11.25	33.75	82.5
907	-510	41.25	168.75	52.5	-7.5	15	37.5	86.25
908	-540	33.75	180	60	0	22.5	48.75	97.5
909	-540	26.25	176.25	48.75	-11.25	11.25	37.5	86.25
910	-562.5	-3.75	176.25	48.75	-11.25	11.25	37.5	86.25
911	-592.5	-15	195	67.5	7.5	30	52.5	93.75
912	-630	-15	198.75	71.25	11.25	33.75	56.25	97.5
913	-645	-15	198.75	75	15	41.25	63.75	105
914	-607.5	-3.75	202.5	78.75	22.5	45	67.5	116.25
915	-555	22.5	198.75	78.75	26.25	48.75	71.25	116.25
916	-495	37.5	195	78.75	26.25	48.75	71.25	116.25
917	-453.75	11.25	195	75	22.5	41.25	67.5	120
918	-480	-15	191.25	71.25	11.25	33.75	60	112.5
919	-502.5	-11.25	180	60	3.75	22.5	45	93.75
920	-491.25	-7.5	180	60	3.75	18.75	41.25	86.25
921	-495	-18.75	187.5	71.25	11.25	26.25	48.75	93.75
922	-536.25	-18.75	195	71.25	15	30	52.5	97.5
923	-596.25	15	191.25	63.75	11.25	26.25	48.75	93.75
924	-652.5	22.5	195	71.25	18.75	37.5	56.25	97.5
925	-648.75	22.5	210	82.5	30	48.75	71.25	112.5
926	-603.75	33.75	210	90	37.5	56.25	78.75	120
927	-603.75	15	206.25	86.25	37.5	52.5	75	116.25
928	-581.25	11.25	202.5	82.5	30	48.75	71.25	108.75
929	-513.75	11.25	191.25	75	22.5	33.75	56.25	101.25
930	-491.25	-30	191.25	75	15	22.5	48.75	90
931	-502.5	-75	217.5	101.25	22.5	22.5	45	86.25
932	-517.5	-105	258.75	142.5	33.75	18.75	33.75	71.25
933	-513.75	-75	315	195	41.25	-3.75	3.75	37.5
934	-506.25	-56.25	378.75	255	41.25	-30	-37.5	0
935	-536.25	-93.75	461.25	326.25	60	-45	-60	-26.25
936	-581.25	-101.25	536.25	401.25	86.25	-45	-67.5	-37.5
937	-558.75	-41.25	592.5	483.75	135	-15	-48.75	-18.75
938	-502.5	33.75	641.25	573.75	202.5	30	-15	11.25
939	-468.75	93.75	671.25	652.5	270	78.75	30	48.75
940	-405	157.5	693.75	731.25	348.75	153.75	97.5	120
941	-345	172.5	727.5	810	438.75	247.5	195	213.75
942	-311.25	168.75	765	888.75	528.75	341.25	292.5	300
943	-255	228.75	798.75	997.5	656.25	476.25	420	412.5
944	-165	363.75	787.5	1068.75	787.5	630	570	551.25
945	-105	603.75	678.75	1005	836.25	723.75	667.5	633.75
946	-112.5	810	521.25	885	862.5	810	761.25	712.5
947	-112.5	881.25	423.75	832.5	967.5	982.5	941.25	870
948	-71.25	997.5	401.25	855	1125	1196.25	1162.5	1072.5
949	-45	1215	315	772.5	1211.25	1376.25	1365	1271.25
950	-18.75	1466.25	97.5	532.5	1203.75	1511.25	1548.75	1462.5
951	15	1672.5	-157.5	232.5	1173.75	1635	1728.75	1646.25
952	18.75	1773.75	-401.25	-71.25	1143.75	1747.5	1875	1788.75
953	41.25	1822.5	-596.25	-311.25	1147.5	1863.75	2002.5	1893.75
954	7.5	1807.5	-690	-420	1192.5	1972.5	2103.75	1950
955	-105	1710	-686.25	-442.5	1256.25	2055	2148.75	1942.5
956	-180	1631.25	-723.75	-517.5	1263.75	2070	2133.75	1890
957	-243.75	1548.75	-828.75	-652.5	1173.75	1972.5	2025	1777.5
958	-341.25	1342.5	-851.25	-727.5	1008.75	1740	1781.25	1556.25
959	-480	1046.25	-757.5	-735	791.25	1413.75	1455	1278.75
960	-596.25	828.75	-690	-798.75	480	1016.25	1095	1001.25
961	-663.75	675	-686.25	-926.25	105	581.25	723.75	731.25
962	-723.75	472.5	-667.5	-1012.5	-191.25	232.5	420	502.5
963	-750	311.25	-615	-990	-307.5	56.25	240	348.75
964	-720	228.75	-551.25	-892.5	-300	-3.75	135	236.25
965	-663.75	161.25	-502.5	-776.25	-247.5	-15	82.5	165
966	-641.25	116.25	-457.5	-648.75	-172.5	22.5	93.75	153.75
967	-637.5	101.25	-390	-525	-97.5	82.5	138.75	183.75
968	-630	97.5	-318.75	-438.75	-75	97.5	157.5	198.75
969	-622.5	93.75	-262.5	-371.25	-71.25	90	153.75	198.75
970	-600	101.25	-198.75	-277.5	-37.5	105	161.25	202.5
971	-577.5	146.25	-120	-161.25	37.5	150	195	228.75
972	-588.75	195	-45	-60	105	198.75	232.5	255
973	-607.5	202.5	11.25	3.75	142.5	217.5	243.75	262.5
974	-603.75	187.5	60	60	168.75	225	243.75	262.5
975	-577.5	183.75	105	105	187.5	228.75	240	255
976	-521.25	198.75	131.25	123.75	187.5	213.75	225	247.5
977	-461.25	195	146.25	135	180	202.5	217.5	243.75
978	-468.75	142.5	165	150	180	195	210	232.5
979	-491.25	105	183.75	161.25	176.25	187.5	198.75	217.5
980	-487.5	127.5	187.5	161.25	165	172.5	180	195
981	-487.5	131.25	176.25	142.5	138.75	138.75	146.25	161.25
982	-521.25	93.75	187.5	150	135	135	142.5	157.5
983	-570	60	217.5	180	157.5	157.5	165	183.75
984	-581.25	60	243.75	206.25	180	180	183.75	198.75
985	-562.5	75	255	221.25	191.25	183.75	187.5	202.5
986	-551.25	71.25	251.25	221.25	187.5	180	187.5	202.5
987	-547.5	60	247.5	221.25	180	172.5	183.75	202.5
988	-525	41.25	251.25	221.25	176.25	168.75	176.25	198.75
989	-487.5	26.25	247.5	217.5	165	157.5	161.25	191.25
990	-483.75	22.5	236.25	206.25	150	138.75	142.5	172.5
991	-513.75	22.5	236.25	202.5	142.5	131.25	138.75	165
992	-510	37.5	251.25	217.5	157.5	146.25	150	180
993	-491.25	45	251.25	217.5	153.75	142.5	150	180
994	-513.75	26.25	247.5	213.75	150	138.75	146.25	172.5
995	-555	22.5	255	225	157.5	146.25	153.75	168.75
996	-581.25	22.5	262.5	232.5	165	150	153.75	168.75
997	-596.25	22.5	270	240	176.25	161.25	161.25	176.25
998	-581.25	52.5	270	240	172.5	161.25	157.5	180
999	-562.5	86.25	251.25	225	153.75	138.75	138.75	161.25
1000	-528.75	90	243.75	217.5	142.5	131.25	127.5	157.5
1001	-480	63.75	243.75	221.25	146.25	131.25	131.25	165
1002	-450	63.75	236.25	213.75	138.75	120	120	150
1003	-442.5	123.75	236.25	217.5	138.75	120	123.75	153.75
1004	-450	161.25	243.75	225	146.25	135	142.5	168.75
1005	-453.75	138.75	247.5	232.5	157.5	146.25	153.75	176.25
1006	-472.5	90	258.75	247.5	168.75	157.5	165	183.75
1007	-506.25	78.75	273.75	262.5	187.5	176.25	180	198.75
1008	-536.25	90	273.75	266.25	191.25	183.75	183.75	198.75
1009	-540	93.75	273.75	270	195	187.5	183.75	202.5
1010	-536.25	78.75	273.75	270	195	187.5	183.75	198.75
1011	-536.25	67.5	273.75	273.75	198.75	187.5	183.75	202.5
1012	-517.5	71.25	270	273.75	195	180	180	198.75
1013	-461.25	86.25	258.75	266.25	187.5	172.5	168.75	195
1014	-442.5	67.5	251.25	262.5	183.75	168.75	168.75	195
1015	-468.75	33.75	258.75	270	187.5	172.5	172.5	198.75
1016	-461.25	60	258.75	270	187.5	172.5	172.5	198.75
1017	-453.75	97.5	251.25	262.5	187.5	172.5	172.5	195
1018	-476.25	63.75	266.25	281.25	202.5	187.5	187.5	210
1019	-506.25	26.25	277.5	300	217.5	198.75	195	217.5
1020	-517.5	75	273.75	296.25	213.75	195	187.5	202.5
1021	-521.25	138.75	270	296.25	213.75	198.75	195	210
1022	-498.75	150	270	303.75	225	210	206.25	228.75
1023	-506.25	135	277.5	311.25	232.5	213.75	210	232.5
1024	-487.5	153.75	266.25	303.75	221.25	202.5	195	217.5
1025	-412.5	168.75	247.5	292.5	210	191.25	183.75	210
1026	-386.25	142.5	247.5	292.5	210	191.25	187.5	210
1027	-401.25	97.5	258.75	303.75	221.25	202.5	202.5	221.25
1028	-420	52.5	285	330	243.75	228.75	228.75	243.75
1029	-442.5	52.5	300	348.75	262.5	247.5	243.75	255
1030	-438.75	116.25	281.25	330	243.75	225	221.25	232.5
1031	-457.5	127.5	273.75	326.25	240	217.5	213.75	225
1032	-487.5	93.75	292.5	348.75	258.75	240	232.5	240
1033	-498.75	116.25	296.25	360	270	251.25	240	251.25
1034	-491.25	150	281.25	348.75	262.5	243.75	232.5	247.5
1035	-487.5	127.5	277.5	352.5	270	251.25	240	255
1036	-446.25	97.5	277.5	356.25	277.5	255	251.25	270
1037	-386.25	56.25	277.5	356.25	273.75	251.25	251.25	273.75
1038	-375	15	277.5	360	273.75	251.25	251.25	266.25
1039	-378.75	48.75	273.75	356.25	270	243.75	243.75	255
1040	-367.5	101.25	277.5	360	273.75	251.25	243.75	255
1041	-393.75	93.75	281.25	367.5	277.5	255	247.5	258.75
1042	-446.25	97.5	281.25	367.5	281.25	255	251.25	262.5
1043	-487.5	108.75	288.75	378.75	288.75	270	266.25	273.75
1044	-513.75	97.5	303.75	397.5	303.75	281.25	277.5	285
1045	-487.5	131.25	292.5	390	296.25	273.75	262.5	270
1046	-435	187.5	285	386.25	292.5	270	262.5	270
1047	-420	183.75	277.5	378.75	288.75	266.25	255	266.25
1048	-401.25	168.75	262.5	367.5	277.5	251.25	240	251.25
1049	-371.25	161.25	251.25	360	266.25	243.75	236.25	251.25
1050	-363.75	150	251.25	360	266.25	243.75	240	251.25
1051	-363.75	157.5	258.75	360	266.25	243.75	243.75	255
1052	-363.75	176.25	262.5	363.75	262.5	243.75	243.75	255
1053	-371.25	172.5	266.25	367.5	266.25	243.75	243.75	255
1054	-386.25	146.25	273.75	371.25	266.25	243.75	243.75	255
1055	-431.25	131.25	281.25	378.75	273.75	255	255	262.5
1056	-468.75	146.25	277.5	378.75	277.5	262.5	258.75	270
1057	-491.25	172.5	266.25	371.25	270	255	251.25	262.5
1058	-483.75	180	270	378.75	273.75	258.75	255	266.25
1059	-420	165	292.5	401.25	296.25	285	281.25	296.25
1060	-348.75	135	311.25	420	311.25	300	300	318.75
1061	-303.75	123.75	300	405	296.25	281.25	288.75	311.25
1062	-311.25	135	277.5	378.75	266.25	251.25	258.75	285
1063	-337.5	135	277.5	371.25	255	240	247.5	270
1064	-337.5	150	285	375	255	243.75	251.25	273.75
1065	-345	165	288.75	375	255	247.5	255	277.5
1066	-352.5	123.75	285	367.5	243.75	236.25	243.75	266.25
1067	-363.75	93.75	292.5	367.5	243.75	240	247.5	266.25
1068	-397.5	120	303.75	375	251.25	247.5	251.25	270
1069	-420	153.75	303.75	375	247.5	247.5	251.25	270
1070	-412.5	176.25	296.25	363.75	232.5	232.5	240	262.5
1071	-393.75	202.5	277.5	341.25	206.25	206.25	213.75	243.75
1072	-367.5	210	266.25	326.25	187.5	187.5	195	232.5
1073	-326.25	157.5	270	326.25	191.25	191.25	202.5	243.75
1074	-303.75	93.75	288.75	341.25	206.25	206.25	225	266.25
1075	-303.75	71.25	296.25	341.25	202.5	210	228.75	270
1076	-315	30	300	341.25	198.75	206.25	225	266.25
1077	-330	26.25	307.5	348.75	202.5	210	232.5	270
1078	-371.25	105	292.5	322.5	176.25	183.75	206.25	243.75
1079	-408.75	138.75	288.75	311.25	165	172.5	195	236.25
1080	-435	116.25	303.75	318.75	172.5	180	206.25	247.5
1081	-427.5	138.75	307.5	322.5	176.25	183.75	202.5	243.75
1082	-420	157.5	300	311.25	165	172.5	191.25	240
1083	-420	142.5	288.75	300	150	157.5	180	232.5
1084	-390	120	292.5	296.25	146.25	153.75	180	228.75
1085	-341.25	93.75	292.5	292.5	142.5	150	176.25	225
1086	-348.75	56.25	296.25	288.75	138.75	142.5	168.75	221.25
1087	-375	45	296.25	281.25	131.25	135	161.25	213.75
1088	-375	67.5	296.25	277.5	123.75	127.5	157.5	206.25
1089	-382.5	75	296.25	273.75	120	123.75	153.75	202.5
1090	-408.75	56.25	303.75	277.5	123.75	127.5	153.75	206.25
1091	-461.25	63.75	311.25	273.75	120	123.75	146.25	195
1092	-506.25	112.5	307.5	266.25	112.5	112.5	131.25	176.25
1093	-513.75	146.25	300	255	101.25	105	120	161.25
1094	-502.5	138.75	303.75	255	105	108.75	123.75	168.75
1095	-513.75	105	303.75	258.75	112.5	112.5	127.5	176.25
1096	-498.75	78.75	307.5	258.75	112.5	112.5	131.25	180
1097	-412.5	86.25	315	262.5	120	120	138.75	187.5
1098	-371.25	101.25	311.25	258.75	120	120	138.75	183.75
1099	-401.25	112.5	300	247.5	108.75	108.75	127.5	168.75
1100	-412.5	97.5	322.5	266.25	127.5	131.25	150	191.25
1101	-405	78.75	337.5	281.25	146.25	150	168.75	206.25
1102	-416.25	60	322.5	266.25	135	135	157.5	191.25
1103	-465	26.25	318.75	258.75	127.5	131.25	150	183.75
1104	-525	30	318.75	255	127.5	131.25	150	180
1105	-540	63.75	315	255	131.25	131.25	146.25	172.5
1106	-502.5	93.75	318.75	255	131.25	127.5	138.75	172.5
1107	-483.75	112.5	315	247.5	123.75	112.5	123.75	165
1108	-476.25	105	303.75	232.5	112.5	101.25	116.25	157.5
1109	-420	90	296.25	228.75	108.75	97.5	112.5	157.5
1110	-412.5	60	288.75	217.5	101.25	90	105	150
1111	-453.75	41.25	285	210	97.5	86.25	105	146.25
1112	-480	41.25	292.5	213.75	101.25	97.5	116.25	157.5
1113	-483.75	67.5	292.5	206.25	101.25	97.5	116.25	157.5
1114	-498.75	97.5	273.75	191.25	90	86.25	105	135
1115	-521.25	105	277.5	191.25	90	86.25	105	131.25
1116	-558.75	93.75	292.5	206.25	105	101.25	116.25	142.5
1117	-581.25	60	303.75	217.5	120	112.5	127.5	157.5
1118	-585	30	311.25	225	127.5	123.75	142.5	172.5
1119	-577.5	11.25	311.25	228.75	135	127.5	146.25	176.25
1120	-532.5	-7.5	311.25	225	135	127.5	142.5	176.25
1121	-480	-41.25	307.5	225	131.25	123.75	142.5	183.75
1122	-461.25	-82.5	311.25	225	127.5	123.75	142.5	180
1123	-480	-82.5	315	221.25	123.75	116.25	138.75	172.5
1124	-502.5	-15	292.5	195	101.25	90	108.75	146.25
1125	-517.5	60	258.75	157.5	63.75	56.25	75	112.5
1126	-528.75	78.75	251.25	146.25	56.25	48.75	67.5	108.75
1127	-551.25	45	258.75	153.75	67.5	63.75	78.75	112.5
1128	-585	11.25	273.75	168.75	82.5	78.75	90	120
1129	-592.5	22.5	273.75	168.75	82.5	82.5	90	120
1130	-570	71.25	266.25	165	78.75	78.75	90	123.75
1131	-573.75	108.75	251.25	153.75	67.5	67.5	78.75	112.5
1132	-551.25	131.25	232.5	135	52.5	52.5	67.5	108.75
1133	-476.25	123.75	225	135	56.25	56.25	75	123.75
1134	-453.75	56.25	251.25	165	82.5	86.25	108.75	153.75
1135	-480	-22.5	273.75	187.5	105	105	127.5	168.75
1136	-487.5	-63.75	288.75	198.75	116.25	116.25	135	176.25
1137	-487.5	-82.5	292.5	198.75	120	120	135	172.5
1138	-502.5	-108.75	292.5	202.5	123.75	120	138.75	172.5
1139	-543.75	-105	296.25	206.25	123.75	120	131.25	165
1140	-585	-41.25	288.75	195	116.25	116.25	123.75	153.75
1141	-581.25	33.75	277.5	187.5	112.5	112.5	120	150
1142	-558.75	63.75	270	183.75	112.5	112.5	120	150
1143	-532.5	52.5	266.25	180	112.5	112.5	120	146.25
1144	-480	48.75	273.75	191.25	120	123.75	127.5	161.25
1145	-453.75	63.75	262.5	180	105	108.75	116.25	153.75
1146	-495	56.25	258.75	176.25	101.25	101.25	112.5	150
1147	-521.25	48.75	262.5	176.25	101.25	101.25	112.5	146.25
1148	-513.75	60	251.25	165	90	90	101.25	135
1149	-510	60	240	153.75	82.5	82.5	93.75	127.5
1150	-517.5	52.5	240	157.5	82.5	82.5	93.75	127.5
1151	-540	56.25	251.25	172.5	97.5	97.5	112.5	142.5
1152	-551.25	78.75	258.75	180	105	108.75	116.25	142.5
1153	-566.25	93.75	255	172.5	105	105	108.75	138.75
1154	-577.5	71.25	255	180	108.75	108.75	116.25	150
1155	-570	18.75	266.25	191.25	123.75	123.75	131.25	168.75
1156	-525	0	273.75	198.75	131.25	127.5	135	172.5
1157	-468.75	-3.75	277.5	202.5	131.25	131.25	135	168.75
1158	-457.5	-15	270	195	123.75	123.75	127.5	157.5
1159	-453.75	7.5	277.5	195	127.5	127.5	135	161.25
1160	-435	15	288.75	206.25	138.75	142.5	150	176.25
1161	-450	-7.5	281.25	202.5	131.25	138.75	146.25	168.75
1162	-498.75	-11.25	277.5	195	127.5	135	142.5	165
1163	-532.5	3.75	273.75	195	127.5	135	142.5	161.25
1164	-551.25	30	273.75	198.75	127.5	135	142.5	161.25
1165	-555	52.5	270	195	127.5	127.5	131.25	153.75
1166	-540	52.5	270	202.5	135	135	138.75	168.75
1167	-510	41.25	273.75	206.25	135	142.5	146.25	176.25
1168	-472.5	63.75	255	187.5	116.25	120	127.5	161.25
1169	-427.5	93.75	225	165	90	93.75	97.5	135
1170	-446.25	33.75	236.25	168.75	97.5	101.25	108.75	142.5
1171	-502.5	-26.25	262.5	191.25	120	123.75	131.25	165
1172	-495	0	262.5	187.5	116.25	127.5	138.75	172.5
1173	-483.75	30	251.25	176.25	105	116.25	131.25	161.25
1174	-506.25	30	247.5	172.5	97.5	108.75	120	146.25
1175	-543.75	11.25	255	176.25	105	112.5	123.75	142.5
1176	-573.75	11.25	262.5	187.5	116.25	123.75	131.25	146.25
1177	-573.75	48.75	251.25	176.25	108.75	116.25	120	142.5
1178	-543.75	101.25	247.5	168.75	105	112.5	120	142.5
1179	-525	112.5	240	168.75	105	112.5	120	146.25
1180	-491.25	63.75	251.25	183.75	116.25	131.25	142.5	172.5
1181	-438.75	-3.75	262.5	191.25	127.5	138.75	150	187.5
1182	-431.25	-18.75	255	180	116.25	123.75	135	168.75
1183	-461.25	37.5	240	161.25	93.75	101.25	116.25	146.25
1184	-476.25	56.25	240	157.5	93.75	101.25	112.5	142.5
1185	-472.5	15	236.25	153.75	86.25	90	101.25	135
1186	-480	-3.75	243.75	157.5	90	97.5	108.75	138.75
1187	-510	-7.5	251.25	165	101.25	108.75	123.75	150
1188	-543.75	7.5	251.25	168.75	108.75	123.75	135	157.5
1189	-562.5	26.25	251.25	168.75	112.5	127.5	135	161.25
1190	-525	33.75	240	165	105	120	131.25	153.75
1191	-502.5	33.75	232.5	161.25	101.25	116.25	127.5	153.75
1192	-480	30	225	150	93.75	108.75	120	150
1193	-431.25	33.75	213.75	138.75	78.75	90	101.25	138.75
1194	-435	22.5	213.75	135	71.25	78.75	93.75	135
1195	-487.5	-11.25	217.5	131.25	67.5	78.75	97.5	135
1196	-491.25	0	217.5	127.5	63.75	75	93.75	127.5
1197	-472.5	7.5	225	131.25	67.5	78.75	97.5	131.25
1198	-465	-3.75	228.75	135	71.25	82.5	101.25	138.75
1199	-491.25	15	247.5	153.75	90	101.25	120	153.75
1200	-536.25	33.75	247.5	153.75	90	105	120	150
1201	-558.75	52.5	236.25	138.75	78.75	93.75	105	138.75
1202	-558.75	52.5	225	131.25	75	90	101.25	135
1203	-566.25	15	228.75	135	78.75	93.75	101.25	135
1204	-562.5	-33.75	228.75	135	75	90	101.25	135
1205	-483.75	3.75	225	127.5	71.25	86.25	101.25	138.75
1206	-438.75	71.25	206.25	108.75	52.5	67.5	82.5	123.75
1207	-461.25	52.5	202.5	101.25	45	63.75	82.5	120
1208	-450	11.25	213.75	112.5	60	82.5	97.5	138.75
1209	-446.25	-3.75	236.25	135	78.75	101.25	120	157.5
1210	-457.5	7.5	243.75	135	78.75	101.25	116.25	153.75
1211	-498.75	18.75	225	112.5	56.25	71.25	86.25	120
1212	-532.5	15	213.75	101.25	41.25	60	75	105
1213	-551.25	26.25	213.75	101.25	45	60	75	105
1214	-566.25	78.75	198.75	90	33.75	48.75	63.75	97.5
1215	-547.5	120	180	78.75	26.25	37.5	52.5	90
1216	-480	86.25	206.25	105	52.5	67.5	82.5	123.75
1217	-423.75	-3.75	243.75	142.5	86.25	97.5	116.25	161.25
1218	-427.5	-93.75	255	150	93.75	105	123.75	165
1219	-468.75	-127.5	251.25	142.5	82.5	97.5	116.25	150
1220	-468.75	-135	243.75	131.25	71.25	90	105	142.5
1221	-442.5	-97.5	247.5	135	75	90	105	142.5
1222	-457.5	-7.5	217.5	105	45	60	78.75	112.5
1223	-502.5	37.5	198.75	86.25	26.25	45	63.75	97.5
1224	-536.25	3.75	206.25	93.75	37.5	60	75	108.75
1225	-547.5	-18.75	225	112.5	56.25	78.75	93.75	127.5
1226	-547.5	-33.75	228.75	120	63.75	86.25	97.5	135
1227	-555	-60	225	116.25	60	82.5	93.75	127.5
1228	-498.75	-45	217.5	108.75	48.75	71.25	82.5	123.75
1229	-416.25	-15	210	101.25	45	63.75	78.75	123.75
1230	-390	-11.25	198.75	90	30	48.75	67.5	112.5
1231	-408.75	0	187.5	75	18.75	37.5	56.25	101.25
1232	-435	0	187.5	75	18.75	37.5	52.5	97.5
1233	-468.75	-22.5	198.75	86.25	30	45	60	101.25
1234	-506.25	-30	213.75	93.75	37.5	56.25	71.25	112.5
1235	-540	-45	225	108.75	52.5	75	90	127.5
1236	-551.25	-60	228.75	116.25	63.75	90	101.25	138.75
1237	-547.5	-30	217.5	105	52.5	78.75	90	123.75
1238	-540	-11.25	198.75	90	33.75	63.75	71.25	105
1239	-536.25	-45	206.25	93.75	41.25	71.25	82.5	112.5
1240	-528.75	-30	213.75	101.25	48.75	78.75	90	123.75
1241	-472.5	15	191.25	78.75	26.25	56.25	71.25	105
1242	-450	-22.5	187.5	71.25	18.75	48.75	67.5	101.25
1243	-465	-71.25	202.5	82.5	26.25	56.25	75	108.75
1244	-476.25	-93.75	213.75	93.75	37.5	67.5	86.25	120
1245	-480	-86.25	213.75	93.75	33.75	63.75	86.25	120
1246	-468.75	-45	213.75	90	30	56.25	75	116.25
1247	-502.5	-30	210	86.25	26.25	48.75	67.5	105
1248	-570	-63.75	206.25	78.75	22.5	41.25	56.25	93.75
1249	-585	-90	217.5	93.75	33.75	56.25	67.5	105
1250	-562.5	-78.75	217.5	97.5	37.5	60	67.5	108.75
1251	-543.75	-52.5	202.5	86.25	30	52.5	56.25	97.5
1252	-483.75	-15	198.75	78.75	26.25	48.75	52.5	97.5
1253	-397.5	18.75	195	75	22.5	41.25	52.5	101.25
1254	-408.75	11.25	187.5	67.5	11.25	33.75	45	93.75
1255	-453.75	-3.75	183.75	63.75	7.5	33.75	45	90
1256	-446.25	-7.5	191.25	71.25	15	41.25	52.5	97.5
1257	-427.5	-11.25	195	75	18.75	45	60	105
1258	-427.5	-3.75	191.25	71.25	18.75	45	56.25	97.5
1259	-461.25	3.75	191.25	75	18.75	48.75	56.25	93.75
1260	-498.75	0	198.75	78.75	26.25	52.5	63.75	97.5
1261	-540	-7.5	202.5	82.5	30	56.25	63.75	93.75
1262	-543.75	-22.5	198.75	82.5	26.25	52.5	56.25	93.75
1263	-528.75	-30	195	82.5	26.25	52.5	60	97.5
1264	-491.25	-26.25	202.5	90	33.75	60	67.5	108.75
1265	-427.5	-26.25	198.75	86.25	30	56.25	67.5	112.5
1266	-397.5	-67.5	191.25	75	18.75	45	56.25	105
1267	-412.5	-105	210	86.25	30	56.25	63.75	108.75
1268	-435	-52.5	217.5	93.75	33.75	56.25	67.5	108.75
1269	-461.25	11.25	206.25	78.75	22.5	45	56.25	101.25
1270	-495	-15	198.75	75	15	41.25	56.25	97.5
1271	-510	-41.25	217.5	97.5	37.5	63.75	78.75	116.25
1272	-521.25	-15	236.25	116.25	56.25	82.5	93.75	127.5
1273	-532.5	3.75	251.25	123.75	63.75	90	97.5	131.25
1274	-525	0	251.25	123.75	67.5	93.75	101.25	135
1275	-513.75	0	251.25	127.5	71.25	93.75	101.25	138.75
1276	-480	26.25	247.5	120	60	86.25	93.75	135
1277	-427.5	33.75	240	108.75	48.75	67.5	78.75	123.75
1278	-416.25	11.25	243.75	108.75	41.25	60	71.25	116.25
1279	-431.25	11.25	232.5	97.5	30	48.75	60	105
1280	-446.25	33.75	225	90	22.5	41.25	52.5	93.75
1281	-442.5	52.5	213.75	82.5	18.75	37.5	45	82.5
1282	-457.5	63.75	213.75	86.25	26.25	45	56.25	93.75
1283	-513.75	52.5	232.5	105	45	67.5	75	108.75
1284	-543.75	33.75	247.5	120	56.25	78.75	82.5	112.5
1285	-532.5	52.5	258.75	135	71.25	90	90	120
1286	-521.25	75	258.75	138.75	75	90	93.75	127.5
1287	-502.5	71.25	262.5	146.25	78.75	97.5	105	138.75
1288	-453.75	67.5	281.25	161.25	93.75	116.25	123.75	157.5
1289	-386.25	101.25	273.75	157.5	93.75	112.5	123.75	157.5
1290	-371.25	120	251.25	138.75	78.75	101.25	112.5	146.25
1291	-393.75	101.25	243.75	146.25	90	112.5	123.75	157.5
1292	-390	71.25	236.25	150	93.75	116.25	131.25	165
1293	-386.25	26.25	217.5	138.75	86.25	105	123.75	161.25
1294	-405	-15	213.75	135	82.5	105	123.75	161.25
1295	-431.25	-11.25	206.25	135	82.5	105	120	157.5
1296	-457.5	30	183.75	120	67.5	90	105	146.25
1297	-461.25	60	176.25	108.75	63.75	86.25	101.25	146.25
1298	-442.5	60	180	108.75	71.25	93.75	108.75	153.75
1299	-450	30	157.5	93.75	56.25	82.5	97.5	146.25
1300	-461.25	-3.75	146.25	82.5	45	75	97.5	146.25
1301	-427.5	-7.5	135	67.5	30	60	78.75	131.25
1302	-397.5	0	123.75	48.75	11.25	41.25	60	112.5
1303	-393.75	-11.25	138.75	60	22.5	52.5	75	120
1304	-386.25	-22.5	176.25	90	52.5	86.25	105	146.25
1305	-375	-41.25	198.75	108.75	67.5	93.75	112.5	153.75
1306	-390	-41.25	191.25	101.25	56.25	78.75	93.75	131.25
1307	-435	-18.75	187.5	97.5	48.75	67.5	82.5	120
1308	-457.5	-7.5	195	101.25	56.25	71.25	82.5	120
1309	-457.5	15	191.25	101.25	52.5	71.25	82.5	120
1310	-457.5	37.5	180	90	45	63.75	75	116.25
1311	-468.75	37.5	168.75	75	30	48.75	60	108.75
1312	-461.25	15	161.25	67.5	22.5	41.25	52.5	105
1313	-431.25	-22.5	165	67.5	18.75	33.75	52.5	108.75
1314	-435	-56.25	157.5	56.25	7.5	22.5	37.5	93.75
1315	-446.25	-90	153.75	56.25	3.75	18.75	33.75	82.5
1316	-427.5	-108.75	165	60	11.25	26.25	41.25	90
1317	-416.25	-116.25	176.25	67.5	18.75	37.5	52.5	97.5
1318	-438.75	-116.25	172.5	63.75	15	33.75	45	90
1319	-465	-67.5	168.75	60	11.25	30	41.25	86.25
1320	-476.25	-37.5	168.75	60	11.25	33.75	45	90
1321	-491.25	-56.25	180	75	26.25	48.75	60	101.25
1322	-491.25	-56.25	191.25	86.25	41.25	60	75	116.25
1323	-472.5	-56.25	183.75	82.5	37.5	63.75	78.75	116.25
1324	-450	-71.25	176.25	75	30	56.25	71.25	112.5
1325	-401.25	-56.25	161.25	52.5	11.25	33.75	52.5	93.75
1326	-371.25	-37.5	138.75	33.75	-7.5	18.75	37.5	78.75
1327	-408.75	-45	146.25	33.75	-7.5	18.75	37.5	78.75
1328	-442.5	-52.5	153.75	37.5	-3.75	18.75	37.5	75
1329	-442.5	-56.25	153.75	41.25	-3.75	18.75	37.5	78.75
1330	-453.75	-67.5	157.5	45	0	22.5	41.25	86.25
1331	-472.5	-63.75	157.5	45	0	22.5	37.5	82.5
1332	-502.5	-56.25	161.25	48.75	3.75	30	45	86.25
1333	-525	-63.75	161.25	56.25	15	37.5	48.75	86.25
1334	-525	-67.5	157.5	56.25	15	37.5	45	82.5
1335	-513.75	-52.5	153.75	52.5	15	41.25	45	82.5
1336	-468.75	-15	157.5	60	26.25	48.75	56.25	90
1337	-408.75	-18.75	150	56.25	18.75	41.25	48.75	90
1338	-408.75	-67.5	146.25	45	7.5	26.25	33.75	78.75
1339	-427.5	-97.5	157.5	56.25	7.5	26.25	37.5	75
1340	-423.75	-112.5	165	63.75	3.75	15	26.25	67.5
1341	-427.5	-138.75	187.5	86.25	7.5	3.75	11.25	52.5
1342	-435	-150	243.75	142.5	26.25	3.75	0	37.5
1343	-435	-138.75	307.5	210	41.25	-15	-33.75	0
1344	-453.75	-135	371.25	270	45	-45	-78.75	-48.75
1345	-461.25	-97.5	435	333.75	63.75	-56.25	-101.25	-67.5
1346	-438.75	-48.75	495	408.75	101.25	-41.25	-93.75	-63.75
1347	-405	-26.25	551.25	502.5	172.5	3.75	-56.25	-30
1348	-348.75	7.5	611.25	603.75	258.75	75	7.5	30
1349	-251.25	48.75	648.75	697.5	348.75	157.5	82.5	101.25
1350	-202.5	82.5	660	765	423.75	228.75	150	157.5
1351	-191.25	150	671.25	810	491.25	307.5	225	221.25
1352	-157.5	221.25	693.75	881.25	585	416.25	333.75	318.75
1353	-101.25	307.5	701.25	975	705	551.25	468.75	435
1354	-48.75	431.25	667.5	1020	810	678.75	596.25	540
1355	-33.75	588.75	596.25	982.5	870	787.5	708.75	641.25
1356	-18.75	761.25	487.5	896.25	933.75	918.75	851.25	776.25
1357	3.75	903.75	416.25	870	1050	1095	1038.75	948.75
1358	15	1042.5	390	888.75	1185	1286.25	1237.5	1132.5
1359	41.25	1248.75	273.75	791.25	1245	1443.75	1428.75	1320
1360	108.75	1455	60	581.25	1252.5	1590	1623.75	1522.5
1361	202.5	1563.75	-157.5	360	1256.25	1725	1792.5	1680
1362	213.75	1597.5	-348.75	116.25	1260	1852.5	1938.75	1796.25
1363	157.5	1586.25	-465	-67.5	1293.75	1991.25	2077.5	1897.5
1364	86.25	1507.5	-450	-86.25	1387.5	2115	2171.25	1931.25
1365	0	1417.5	-446.25	-108.75	1440	2175	2193.75	1897.5
1366	-90	1342.5	-543.75	-262.5	1380	2137.5	2137.5	1815
1367	-161.25	1222.5	-622.5	-420	1245	1991.25	1987.5	1672.5
1368	-255	1016.25	-592.5	-495	1057.5	1728.75	1721.25	1447.5
1369	-375	791.25	-536.25	-566.25	783.75	1353.75	1372.5	1170
1370	-465	603.75	-506.25	-678.75	438.75	926.25	990	888.75
1371	-551.25	450	-495	-798.75	97.5	517.5	630	622.5
1372	-566.25	367.5	-521.25	-900	-168.75	202.5	341.25	397.5
1373	-528.75	285	-513.75	-888.75	-258.75	52.5	168.75	240
1374	-555	131.25	-450	-791.25	-232.5	15	90	142.5
1375	-600	18.75	-401.25	-693.75	-187.5	22.5	67.5	105
1376	-573.75	22.5	-378.75	-592.5	-116.25	75	105	127.5
1377	-517.5	48.75	-356.25	-506.25	-67.5	116.25	138.75	150
1378	-480	56.25	-315	-438.75	-71.25	108.75	142.5	157.5
1379	-453.75	71.25	-262.5	-371.25	-63.75	112.5	153.75	176.25
1380	-461.25	60	-213.75	-292.5	-37.5	120	157.5	180
1381	-480	33.75	-157.5	-206.25	3.75	138.75	161.25	176.25
1382	-465	67.5	-97.5	-120	52.5	157.5	172.5	183.75
1383	-431.25	135	-67.5	-67.5	78.75	165	172.5	183.75
1384	-386.25	150	-41.25	-26.25	97.5	172.5	172.5	180
1385	-337.5	101.25	7.5	30	127.5	187.5	180	191.25
1386	-337.5	26.25	56.25	71.25	150	191.25	183.75	191.25
1387	-375	-15	86.25	93.75	153.75	195	183.75	187.5
1388	-382.5	3.75	112.5	108.75	153.75	191.25	183.75	187.5
1389	-360	45	135	131.25	161.25	191.25	183.75	183.75
1390	-367.5	52.5	146.25	138.75	153.75	176.25	168.75	168.75
1391	-405	33.75	153.75	142.5	150	165	153.75	157.5
1392	-450	7.5	165	153.75	157.5	172.5	157.5	161.25
1393	-453.75	7.5	176.25	165	165	176.25	157.5	161.25
1394	-420	33.75	168.75	161.25	157.5	168.75	142.5	153.75
1395	-401.25	56.25	157.5	153.75	150	157.5	135	150
1396	-363.75	56.25	161.25	157.5	146.25	161.25	138.75	153.75
1397	-311.25	45	157.5	153.75	135	146.25	127.5	146.25
1398	-315	11.25	157.5	150	123.75	135	116.25	135
1399	-348.75	-22.5	165	157.5	127.5	135	112.5	131.25
1400	-367.5	-26.25	180	168.75	138.75	146.25	127.5	146.25
1401	-367.5	-33.75	183.75	172.5	138.75	146.25	127.5	146.25
1402	-363.75	-37.5	176.25	165	127.5	135	116.25	135
1403	-405	-37.5	180	165	131.25	135	116.25	131.25
1404	-438.75	-37.5	187.5	176.25	138.75	146.25	123.75	135
1405	-442.5	-22.5	191.25	183.75	146.25	153.75	131.25	138.75
1406	-412.5	11.25	191.25	187.5	153.75	161.25	138.75	142.5
1407	-390	11.25	187.5	191.25	157.5	165	138.75	146.25
1408	-382.5	-11.25	183.75	187.5	150	157.5	131.25	138.75
1409	-322.5	0	176.25	180	138.75	146.25	120	131.25
1410	-296.25	3.75	176.25	180	138.75	142.5	116.25	135
1411	-296.25	15	172.5	180	135	131.25	108.75	131.25
1412	-273.75	41.25	161.25	176.25	131.25	127.5	105	123.75
1413	-292.5	15	165	176.25	131.25	127.5	105	127.5
1414	-326.25	-22.5	180	187.5	138.75	142.5	120	142.5
1415	-348.75	-41.25	195	202.5	157.5	157.5	135	150
1416	-367.5	-15	202.5	213.75	165	168.75	138.75	150
1417	-382.5	45	187.5	210	161.25	161.25	131.25	135
1418	-371.25	78.75	187.5	210	165	168.75	138.75	142.5
1419	-363.75	56.25	187.5	213.75	168.75	172.5	138.75	146.25
1420	-315	63.75	180	210	161.25	165	135	142.5
1421	-266.25	67.5	161.25	198.75	153.75	157.5	131.25	146.25
1422	-262.5	33.75	161.25	198.75	153.75	157.5	131.25	146.25
1423	-270	-3.75	172.5	210	165	168.75	142.5	146.25
1424	-273.75	-7.5	187.5	225	180	187.5	161.25	157.5
1425	-285	0	176.25	213.75	172.5	183.75	153.75	150
1426	-292.5	-3.75	168.75	206.25	165	180	150	146.25
1427	-311.25	11.25	176.25	221.25	180	191.25	161.25	153.75
1428	-363.75	26.25	176.25	225	183.75	191.25	161.25	153.75
1429	-375	45	176.25	228.75	183.75	191.25	157.5	157.5
1430	-333.75	60	183.75	240	195	198.75	165	168.75
1431	-318.75	30	187.5	243.75	198.75	198.75	165	172.5
1432	-303.75	-3.75	187.5	247.5	202.5	198.75	165	176.25
1433	-247.5	11.25	172.5	240	187.5	183.75	153.75	165
1434	-217.5	56.25	153.75	221.25	172.5	168.75	138.75	150
1435	-225	105	146.25	217.5	172.5	176.25	146.25	150
1436	-243.75	112.5	153.75	225	183.75	191.25	157.5	161.25
1437	-232.5	97.5	161.25	232.5	187.5	198.75	168.75	165
1438	-221.25	63.75	172.5	243.75	202.5	217.5	187.5	183.75
1439	-266.25	7.5	180	258.75	217.5	228.75	198.75	191.25
1440	-318.75	11.25	172.5	258.75	221.25	225	191.25	187.5
1441	-326.25	71.25	153.75	243.75	202.5	210	172.5	168.75
1442	-303.75	108.75	142.5	240	195	198.75	161.25	161.25
1443	-285	116.25	157.5	255	210	210	168.75	176.25
1444	-255	112.5	161.25	262.5	217.5	213.75	176.25	183.75
1445	-210	82.5	161.25	266.25	221.25	217.5	183.75	195
1446	-206.25	33.75	172.5	277.5	236.25	232.5	202.5	210
1447	-240	-18.75	180	288.75	243.75	247.5	213.75	217.5
1448	-258.75	-48.75	187.5	296.25	251.25	251.25	217.5	217.5
1449	-236.25	-22.5	195	303.75	258.75	258.75	225	221.25
1450	-225	45	191.25	303.75	258.75	258.75	221.25	221.25
1451	-255	71.25	180	296.25	247.5	247.5	213.75	213.75
1452	-288.75	56.25	180	300	255	255	217.5	217.5
1453	-300	67.5	176.25	300	255	255	217.5	213.75
1454	-303.75	101.25	165	292.5	247.5	251.25	210	206.25
1455	-281.25	105	157.5	288.75	243.75	247.5	210	210
1456	-206.25	108.75	165	300	255	262.5	228.75	232.5
1457	-142.5	123.75	157.5	296.25	251.25	258.75	225	236.25
1458	-142.5	120	153.75	292.5	243.75	251.25	221.25	228.75
1459	-165	90	153.75	292.5	243.75	251.25	221.25	221.25
1460	-176.25	67.5	153.75	296.25	243.75	251.25	221.25	217.5
1461	-165	71.25	157.5	296.25	240	243.75	213.75	210
1462	-157.5	90	153.75	292.5	236.25	232.5	202.5	198.75
1463	-180	82.5	153.75	296.25	236.25	228.75	198.75	202.5
1464	-213.75	60	165	307.5	247.5	243.75	213.75	217.5
1465	-225	78.75	172.5	315	258.75	262.5	232.5	236.25
1466	-198.75	108.75	165	311.25	255	262.5	236.25	236.25
1467	-180	138.75	165	315	251.25	262.5	232.5	236.25
1468	-180	153.75	168.75	315	251.25	258.75	236.25	240
1469	-142.5	105	157.5	300	232.5	240	225	228.75
1470	-101.25	71.25	146.25	285	210	221.25	206.25	217.5
1471	-116.25	75	142.5	277.5	202.5	217.5	202.5	210
1472	-135	75	153.75	288.75	213.75	228.75	210	217.5
1473	-120	90	161.25	292.5	217.5	228.75	213.75	225
1474	-146.25	71.25	157.5	285	202.5	217.5	206.25	217.5
1475	-183.75	56.25	161.25	281.25	202.5	221.25	210	221.25
1476	-210	86.25	168.75	288.75	210	232.5	217.5	228.75
1477	-206.25	116.25	165	285	210	232.5	217.5	225
1478	-172.5	123.75	157.5	277.5	202.5	221.25	210	221.25
1479	-168.75	127.5	150	270	191.25	213.75	202.5	217.5
1480	-168.75	127.5	153.75	270	183.75	210	202.5	217.5
1481	-120	116.25	153.75	266.25	176.25	195	191.25	213.75
1482	-97.5	75	146.25	247.5	157.5	176.25	172.5	198.75
1483	-108.75	45	142.5	240	146.25	165	161.25	191.25
1484	-105	56.25	161.25	255	161.25	176.25	176.25	206.25
1485	-97.5	48.75	176.25	270	168.75	187.5	183.75	213.75
1486	-105	41.25	172.5	258.75	157.5	180	176.25	206.25
1487	-135	52.5	161.25	243.75	142.5	165	161.25	191.25
1488	-176.25	75	161.25	240	138.75	165	157.5	187.5
1489	-213.75	97.5	168.75	243.75	142.5	165	157.5	191.25
1490	-232.5	101.25	176.25	243.75	138.75	161.25	157.5	195
1491	-213.75	123.75	168.75	240	131.25	153.75	146.25	187.5
1492	-180	146.25	153.75	221.25	112.5	135	131.25	168.75
1493	-150	138.75	150	210	101.25	123.75	116.25	157.5
1494	-127.5	93.75	150	206.25	93.75	112.5	108.75	150
1495	-138.75	60	157.5	210	93.75	112.5	112.5	142.5
1496	-161.25	93.75	168.75	217.5	105	123.75	123.75	153.75
1497	-176.25	101.25	165	210	93.75	116.25	116.25	146.25
1498	-191.25	37.5	168.75	210	93.75	112.5	112.5	142.5
1499	-217.5	0	195	232.5	112.5	127.5	127.5	157.5
1500	-255	22.5	198.75	232.5	116.25	131.25	127.5	157.5
1501	-273.75	56.25	198.75	232.5	120	131.25	123.75	150
1502	-240	63.75	206.25	236.25	127.5	138.75	123.75	150
1503	-206.25	33.75	210	243.75	135	142.5	127.5	150
1504	-217.5	7.5	206.25	236.25	127.5	135	116.25	142.5
1505	-217.5	11.25	191.25	213.75	105	108.75	93.75	120
1506	-191.25	48.75	176.25	198.75	90	90	75	105
1507	-176.25	97.5	183.75	202.5	97.5	101.25	90	120
1508	-183.75	127.5	183.75	202.5	101.25	105	90	120
1509	-198.75	112.5	183.75	198.75	93.75	97.5	82.5	105
1510	-202.5	63.75	195	206.25	101.25	108.75	97.5	116.25
1511	-221.25	33.75	210	217.5	116.25	127.5	112.5	131.25
1512	-270	-18.75	221.25	232.5	135	142.5	127.5	142.5
1513	-292.5	-75	236.25	247.5	157.5	161.25	142.5	161.25
1514	-277.5	-82.5	240	251.25	161.25	161.25	142.5	161.25
1515	-262.5	-15	217.5	221.25	131.25	135	112.5	131.25
1516	-258.75	60	198.75	202.5	116.25	120	93.75	120
1517	-240	33.75	191.25	195	116.25	116.25	90	120
1518	-213.75	11.25	187.5	187.5	105	108.75	82.5	112.5
1519	-206.25	33.75	183.75	183.75	105	108.75	82.5	105
1520	-217.5	56.25	195	191.25	120	123.75	101.25	116.25
1521	-213.75	67.5	198.75	195	123.75	131.25	108.75	123.75
1522	-213.75	41.25	195	187.5	120	127.5	105	116.25
1523	-247.5	11.25	191.25	183.75	112.5	120	93.75	105
1524	-303.75	0	191.25	176.25	108.75	112.5	82.5	93.75
1525	-337.5	11.25	195	180	116.25	116.25	82.5	97.5
1526	-337.5	41.25	187.5	176.25	112.5	108.75	71.25	93.75
1527	-356.25	30	176.25	157.5	93.75	90	56.25	78.75
1528	-330	3.75	172.5	153.75	90	93.75	60	78.75
1529	-266.25	-7.5	168.75	153.75	93.75	101.25	75	93.75
1530	-213.75	11.25	172.5	153.75	101.25	105	78.75	105
1531	-206.25	26.25	176.25	157.5	105	112.5	86.25	105
1532	-236.25	7.5	176.25	153.75	101.25	108.75	82.5	97.5
1533	-262.5	-26.25	183.75	150	97.5	101.25	71.25	82.5
1534	-266.25	-45	180	146.25	90	97.5	63.75	75
1535	-285	-48.75	172.5	146.25	90	101.25	71.25	78.75
1536	-311.25	-15	180	153.75	101.25	112.5	82.5	93.75
1537	-322.5	26.25	176.25	150	101.25	112.5	78.75	90
1538	-315	37.5	172.5	142.5	97.5	105	71.25	82.5
1539	-311.25	0	172.5	138.75	93.75	97.5	63.75	75
1540	-296.25	-71.25	187.5	153.75	105	105	71.25	86.25
1541	-243.75	-157.5	213.75	180	127.5	123.75	90	112.5
1542	-213.75	-153.75	210	172.5	116.25	105	71.25	97.5
1543	-228.75	-45	168.75	123.75	71.25	60	26.25	48.75
1544	-247.5	18.75	138.75	101.25	52.5	45	11.25	33.75
1545	-247.5	3.75	150	116.25	71.25	71.25	41.25	60
1546	-232.5	0	165	135	93.75	101.25	71.25	90
1547	-247.5	18.75	176.25	142.5	105	112.5	86.25	97.5
1548	-311.25	11.25	180	150	112.5	120	90	93.75
1549	-348.75	-7.5	183.75	157.5	120	127.5	93.75	93.75
1550	-337.5	-22.5	187.5	165	127.5	138.75	97.5	101.25
1551	-318.75	-26.25	187.5	165	127.5	135	97.5	105
1552	-307.5	-33.75	180	161.25	123.75	123.75	86.25	97.5
1553	-270	-37.5	172.5	153.75	112.5	112.5	78.75	97.5
1554	-243.75	-45	168.75	142.5	101.25	101.25	71.25	90
1555	-243.75	-48.75	172.5	142.5	101.25	101.25	75	86.25
1556	-247.5	-33.75	176.25	150	105	108.75	82.5	93.75
1557	-255	-30	172.5	146.25	101.25	105	75	86.25
1558	-270	-52.5	168.75	142.5	101.25	101.25	71.25	82.5
1559	-292.5	-63.75	168.75	146.25	112.5	112.5	78.75	86.25
1560	-311.25	-52.5	176.25	165	131.25	131.25	97.5	97.5
1561	-296.25	-37.5	191.25	180	150	153.75	116.25	120
1562	-296.25	-37.5	198.75	191.25	161.25	165	127.5	131.25
1563	-307.5	-18.75	187.5	176.25	150	153.75	116.25	120
1564	-273.75	41.25	161.25	150	123.75	123.75	86.25	93.75
1565	-217.5	56.25	142.5	135	108.75	108.75	71.25	82.5
1566	-187.5	26.25	135	127.5	101.25	101.25	67.5	75
1567	-210	7.5	138.75	131.25	101.25	105	71.25	78.75
1568	-217.5	7.5	146.25	135	105	112.5	82.5	86.25
1569	-198.75	26.25	142.5	131.25	105	116.25	86.25	86.25
1570	-217.5	22.5	131.25	123.75	97.5	108.75	78.75	78.75
1571	-273.75	-18.75	142.5	135	112.5	120	86.25	90
1572	-307.5	-52.5	161.25	153.75	131.25	138.75	105	101.25
1573	-300	-56.25	172.5	165	142.5	142.5	105	105
1574	-292.5	-30	165	161.25	135	135	93.75	93.75
1575	-277.5	11.25	150	146.25	123.75	120	78.75	82.5
1576	-266.25	15	146.25	142.5	120	116.25	75	86.25
1577	-221.25	15	138.75	135	112.5	108.75	71.25	86.25
1578	-180	15	131.25	127.5	105	105	67.5	78.75
1579	-176.25	22.5	138.75	135	116.25	116.25	82.5	86.25
1580	-191.25	37.5	135	131.25	112.5	112.5	82.5	86.25
1581	-202.5	37.5	127.5	123.75	105	108.75	78.75	82.5
1582	-198.75	30	127.5	127.5	108.75	112.5	78.75	82.5
1583	-221.25	33.75	123.75	120	105	108.75	75	75
1584	-251.25	45	135	127.5	116.25	120	82.5	78.75
1585	-262.5	41.25	150	146.25	135	142.5	101.25	97.5
1586	-262.5	3.75	161.25	157.5	150	157.5	116.25	112.5
1587	-251.25	-18.75	157.5	157.5	150	157.5	116.25	116.25
1588	-228.75	-18.75	153.75	153.75	146.25	153.75	116.25	116.25
1589	-176.25	-22.5	138.75	138.75	131.25	138.75	105	108.75
1590	-142.5	-22.5	127.5	123.75	120	131.25	101.25	105
1591	-150	-18.75	127.5	123.75	116.25	127.5	97.5	101.25
1592	-153.75	-18.75	131.25	127.5	120	131.25	101.25	101.25
1593	-172.5	-18.75	146.25	138.75	131.25	142.5	116.25	116.25
1594	-195	-22.5	142.5	135	131.25	142.5	112.5	112.5
1595	-221.25	-7.5	131.25	123.75	116.25	131.25	101.25	97.5
1596	-247.5	15	135	127.5	123.75	135	101.25	97.5
1597	-270	3.75	138.75	135	131.25	142.5	105	101.25
1598	-270	18.75	135	127.5	123.75	131.25	90	86.25
1599	-247.5	63.75	120	112.5	108.75	112.5	75	75
1600	-213.75	78.75	108.75	101.25	97.5	101.25	63.75	71.25
1601	-153.75	60	97.5	93.75	86.25	90	56.25	71.25
1602	-135	7.5	101.25	93.75	86.25	90	56.25	75
1603	-165	-22.5	101.25	90	82.5	86.25	56.25	71.25
1604	-195	-7.5	101.25	86.25	78.75	82.5	56.25	67.5
1605	-202.5	3.75	90	71.25	67.5	75	45	52.5
1606	-195	-3.75	93.75	75	67.5	78.75	52.5	56.25
1607	-206.25	-7.5	108.75	86.25	82.5	90	63.75	63.75
1608	-258.75	-7.5	101.25	78.75	75	86.25	56.25	56.25
1609	-296.25	-11.25	97.5	71.25	71.25	82.5	56.25	60
1610	-300	-3.75	93.75	63.75	67.5	82.5	52.5	60
1611	-277.5	11.25	93.75	63.75	67.5	82.5	56.25	63.75
1612	-262.5	0	105	82.5	82.5	97.5	71.25	82.5
1613	-217.5	7.5	97.5	78.75	82.5	93.75	67.5	78.75
1614	-150	0	101.25	82.5	86.25	90	63.75	75
1615	-123.75	-11.25	127.5	101.25	97.5	101.25	78.75	90
1616	-142.5	0	127.5	101.25	93.75	97.5	75	86.25
1617	-165	-37.5	127.5	101.25	93.75	97.5	78.75	90
1618	-168.75	-63.75	120	93.75	86.25	90	71.25	82.5
1619	-183.75	-18.75	105	78.75	71.25	78.75	56.25	63.75
1620	-228.75	18.75	101.25	71.25	63.75	71.25	48.75	56.25
1621	-251.25	30	105	75	71.25	78.75	52.5	63.75
1622	-243.75	22.5	108.75	78.75	75	78.75	45	60
1623	-225	11.25	108.75	78.75	78.75	78.75	48.75	63.75
1624	-195	3.75	105	82.5	78.75	86.25	56.25	75
1625	-176.25	-22.5	108.75	78.75	78.75	82.5	56.25	78.75
1626	-157.5	-48.75	112.5	78.75	75	78.75	56.25	82.5
1627	-150	-45	105	75	67.5	75	56.25	78.75
1628	-172.5	-41.25	108.75	75	67.5	75	56.25	75
1629	-180	-63.75	116.25	75	67.5	78.75	56.25	71.25
1630	-172.5	-86.25	116.25	75	71.25	78.75	56.25	71.25
1631	-198.75	-86.25	105	63.75	60	67.5	48.75	60
1632	-251.25	-67.5	101.25	60	56.25	63.75	41.25	52.5
1633	-288.75	-41.25	101.25	63.75	60	67.5	41.25	52.5
1634	-258.75	-18.75	97.5	60	52.5	63.75	41.25	52.5
1635	-225	-7.5	97.5	60	52.5	60	41.25	52.5
1636	-228.75	-11.25	101.25	60	56.25	60	37.5	56.25
1637	-187.5	7.5	93.75	52.5	45	48.75	30	52.5
1638	-153.75	15	67.5	26.25	18.75	22.5	7.5	30
1639	-165	-3.75	60	15	11.25	15	-3.75	18.75
1640	-168.75	-15	63.75	22.5	18.75	22.5	3.75	18.75
1641	-157.5	-18.75	71.25	26.25	26.25	37.5	15	30
1642	-165	-48.75	78.75	33.75	33.75	48.75	26.25	41.25
1643	-191.25	-82.5	82.5	45	45	52.5	33.75	45
1644	-217.5	-86.25	90	52.5	52.5	63.75	41.25	48.75
1645	-228.75	-52.5	90	52.5	52.5	63.75	41.25	48.75
1646	-232.5	-18.75	93.75	48.75	48.75	60	37.5	45
1647	-251.25	-26.25	101.25	52.5	56.25	63.75	37.5	48.75
1648	-225	-30	97.5	52.5	52.5	60	33.75	52.5
1649	-165	-26.25	90	48.75	45	52.5	33.75	52.5
1650	-135	-63.75	90	45	45	48.75	30	56.25
1651	-153.75	-116.25	108.75	63.75	60	60	41.25	63.75
1652	-168.75	-127.5	116.25	67.5	60	56.25	37.5	56.25
1653	-161.25	-63.75	93.75	41.25	33.75	30	11.25	30
1654	-161.25	-18.75	71.25	22.5	11.25	11.25	-7.5	15
1655	-183.75	-33.75	71.25	22.5	15	15	-3.75	15
1656	-225	-37.5	82.5	30	22.5	30	7.5	26.25
1657	-243.75	-22.5	75	26.25	22.5	30	7.5	22.5
1658	-221.25	0	63.75	22.5	18.75	22.5	0	18.75
1659	-228.75	-7.5	67.5	22.5	18.75	22.5	3.75	26.25
1660	-228.75	-33.75	71.25	22.5	18.75	26.25	3.75	30
1661	-187.5	-52.5	71.25	22.5	18.75	18.75	3.75	33.75
1662	-153.75	-45	78.75	30	22.5	22.5	11.25	37.5
1663	-138.75	-30	90	37.5	33.75	33.75	22.5	48.75
1664	-135	-30	93.75	37.5	37.5	41.25	30	52.5
1665	-146.25	-30	93.75	41.25	37.5	41.25	26.25	45
1666	-150	0	86.25	33.75	30	33.75	18.75	37.5
1667	-180	7.5	90	33.75	26.25	26.25	11.25	33.75
1668	-262.5	-26.25	101.25	37.5	30	30	11.25	22.5
1669	-292.5	-30	112.5	48.75	37.5	37.5	15	26.25
1670	-255	-11.25	116.25	48.75	41.25	41.25	15	30
1671	-221.25	-11.25	120	56.25	45	45	22.5	45
1672	-187.5	-11.25	135	71.25	60	60	37.5	60
1673	-120	22.5	135	75	63.75	60	41.25	63.75
1674	-101.25	37.5	131.25	67.5	52.5	45	26.25	52.5
1675	-135	-3.75	131.25	63.75	45	41.25	22.5	41.25
1676	-150	-37.5	138.75	67.5	52.5	48.75	30	45
1677	-138.75	-33.75	150	78.75	63.75	60	41.25	56.25
1678	-123.75	-22.5	138.75	71.25	52.5	52.5	33.75	48.75
1679	-142.5	-37.5	131.25	63.75	48.75	45	26.25	41.25
1680	-191.25	-26.25	150	78.75	67.5	63.75	45	56.25
1681	-210	45	153.75	78.75	67.5	67.5	48.75	56.25
1682	-202.5	135	150	75	63.75	67.5	45	52.5
1683	-183.75	183.75	157.5	82.5	71.25	75	48.75	63.75
1684	-168.75	153.75	157.5	86.25	71.25	78.75	48.75	67.5
1685	-123.75	82.5	146.25	82.5	63.75	67.5	41.25	63.75
1686	-90	33.75	146.25	86.25	75	75	52.5	75
1687	-101.25	52.5	142.5	90	82.5	82.5	67.5	82.5
1688	-108.75	60	123.75	78.75	71.25	78.75	60	75
1689	-108.75	26.25	112.5	75	75	82.5	63.75	78.75
1690	-116.25	22.5	101.25	75	75	86.25	67.5	82.5
1691	-131.25	26.25	90	67.5	71.25	82.5	60	75
1692	-150	33.75	90	67.5	71.25	86.25	67.5	78.75
1693	-168.75	52.5	82.5	63.75	71.25	86.25	67.5	78.75
1694	-183.75	48.75	75	52.5	60	75	56.25	71.25
1695	-161.25	33.75	63.75	41.25	45	60	41.25	63.75
1696	-123.75	26.25	52.5	33.75	41.25	56.25	41.25	67.5
1697	-86.25	15	48.75	26.25	33.75	48.75	33.75	63.75
1698	-67.5	-3.75	45	18.75	18.75	33.75	18.75	48.75
1699	-86.25	-11.25	45	11.25	11.25	22.5	11.25	37.5
1700	-112.5	-18.75	52.5	15	11.25	26.25	15	33.75
1701	-131.25	-41.25	60	18.75	15	30	18.75	37.5
1702	-153.75	-71.25	60	15	15	30	15	30
1703	-153.75	-67.5	63.75	18.75	15	33.75	15	30
1704	-161.25	-33.75	86.25	37.5	33.75	48.75	33.75	45
1705	-187.5	-11.25	90	37.5	33.75	48.75	30	41.25
1706	-202.5	-3.75	82.5	26.25	18.75	33.75	15	26.25
1707	-221.25	-45	67.5	11.25	0	11.25	-3.75	7.5
1708	-217.5	-90	67.5	11.25	3.75	11.25	-7.5	11.25
1709	-116.25	-63.75	71.25	18.75	7.5	11.25	-3.75	22.5
1710	-41.25	-15	63.75	11.25	-3.75	3.75	-7.5	18.75
1711	-78.75	-37.5	63.75	7.5	-7.5	3.75	-7.5	18.75
1712	-116.25	-75	63.75	0	-11.25	0	-7.5	15
1713	-116.25	-56.25	52.5	-15	-30	-11.25	-18.75	3.75
1714	-123.75	-37.5	45	-22.5	-37.5	-18.75	-26.25	-7.5
1715	-153.75	-26.25	45	-22.5	-41.25	-22.5	-33.75	-18.75
1716	-206.25	-26.25	48.75	-22.5	-37.5	-18.75	-33.75	-22.5
1717	-221.25	-37.5	63.75	-3.75	-15	0	-15	-3.75
1718	-191.25	-30	63.75	-3.75	-15	3.75	-15	-3.75
1719	-198.75	-45	41.25	-18.75	-30	-15	-33.75	-15
1720	-195	-78.75	37.5	-22.5	-33.75	-18.75	-33.75	-15
1721	-123.75	-86.25	41.25	-18.75	-33.75	-22.5	-33.75	-11.25
1722	-60	-78.75	41.25	-22.5	-41.25	-30	-41.25	-11.25
1723	-71.25	-86.25	48.75	-18.75	-37.5	-26.25	-37.5	-11.25
1724	-112.5	-120	63.75	-7.5	-26.25	-15	-26.25	0
1725	-131.25	-168.75	75	7.5	-11.25	-7.5	-18.75	7.5
1726	-165	-165	63.75	-7.5	-26.25	-22.5	-33.75	-7.5
1727	-240	-105	18.75	-56.25	-75	-67.5	-78.75	-56.25
1728	-277.5	-86.25	11.25	-63.75	-78.75	-67.5	-82.5	-56.25
1729	-221.25	-75	52.5	-15	-30	-18.75	-30	-7.5
1730	-153.75	-26.25	71.25	7.5	-7.5	7.5	-7.5	15
1731	-153.75	0	52.5	-11.25	-26.25	-7.5	-26.25	-3.75
1732	-165	-7.5	52.5	-11.25	-30	-11.25	-33.75	-7.5
1733	-123.75	-22.5	48.75	-15	-33.75	-18.75	-37.5	-11.25
1734	-93.75	-48.75	41.25	-26.25	-48.75	-30	-52.5	-26.25
1735	-78.75	-15	45	-26.25	-45	-30	-48.75	-22.5
1736	-60	33.75	41.25	-22.5	-48.75	-37.5	-56.25	-26.25
1737	-101.25	-22.5	37.5	-26.25	-67.5	-63.75	-82.5	-52.5
1738	-172.5	-146.25	63.75	-3.75	-67.5	-82.5	-108.75	-86.25
1739	-180	-191.25	131.25	67.5	-41.25	-82.5	-123.75	-105
1740	-157.5	-180	221.25	161.25	-3.75	-78.75	-135	-123.75
1741	-153.75	-187.5	315	255	33.75	-71.25	-142.5	-131.25
1742	-142.5	-168.75	397.5	345	78.75	-52.5	-131.25	-120
1743	-108.75	-105	453.75	423.75	131.25	-26.25	-116.25	-108.75
1744	-48.75	-41.25	487.5	502.5	195	15	-86.25	-78.75
1745	56.25	41.25	536.25	603.75	281.25	86.25	-18.75	-15
1746	82.5	41.25	570	686.25	363.75	161.25	52.5	52.5
1747	56.25	18.75	581.25	742.5	431.25	225	116.25	101.25
1748	63.75	93.75	566.25	757.5	468.75	277.5	165	142.5
1749	101.25	225	558.75	810	543.75	367.5	255	225
1750	198.75	401.25	570	915	675	513.75	401.25	356.25
1751	311.25	596.25	566.25	978.75	798.75	667.5	558.75	495
1752	311.25	682.5	498.75	930	862.5	787.5	690	615
1753	288.75	746.25	393.75	843.75	930	930	836.25	750
1754	315	915	315	798.75	1031.25	1095	1008.75	907.5
1755	360	1128.75	247.5	761.25	1128.75	1263.75	1196.25	1083.75
1756	401.25	1346.25	78.75	615	1151.25	1398.75	1376.25	1267.5
1757	450	1500	-150	386.25	1132.5	1518.75	1545	1440
1758	483.75	1556.25	-341.25	187.5	1158.75	1672.5	1728.75	1597.5
1759	453.75	1567.5	-506.25	-41.25	1181.25	1826.25	1897.5	1728.75
1760	386.25	1545	-592.5	-206.25	1207.5	1942.5	2006.25	1788.75
1761	307.5	1451.25	-555	-213.75	1282.5	2036.25	2066.25	1788.75
1762	236.25	1353.75	-551.25	-247.5	1320	2085	2081.25	1758.75
1763	180	1293.75	-630	-390	1248.75	2032.5	2021.25	1680
1764	97.5	1151.25	-682.5	-536.25	1091.25	1845	1826.25	1492.5
1765	-7.5	945	-663.75	-626.25	866.25	1530	1507.5	1226.25
1766	-93.75	783.75	-626.25	-720	570	1132.5	1143.75	956.25
1767	-191.25	626.25	-588.75	-817.5	232.5	708.75	776.25	693.75
1768	-251.25	491.25	-570	-915	-71.25	337.5	446.25	453.75
1769	-206.25	386.25	-577.5	-971.25	-270	90	210	273.75
1770	-165	258.75	-555	-922.5	-307.5	-11.25	78.75	150
1771	-187.5	157.5	-495	-825	-273.75	-33.75	11.25	60
1772	-195	127.5	-442.5	-727.5	-221.25	-15	3.75	37.5
1773	-183.75	82.5	-412.5	-630	-153.75	41.25	52.5	67.5
1774	-195	15	-390	-543.75	-105	82.5	86.25	93.75
1775	-228.75	-15	-367.5	-487.5	-112.5	63.75	75	86.25
1776	-251.25	-26.25	-341.25	-450	-138.75	26.25	48.75	63.75
1777	-236.25	-26.25	-296.25	-378.75	-116.25	30	48.75	63.75
1778	-172.5	-3.75	-243.75	-296.25	-78.75	45	56.25	71.25
1779	-135	41.25	-206.25	-225	-45	56.25	56.25	71.25
1780	-127.5	105	-180	-172.5	-15	67.5	60	75
1781	-63.75	142.5	-150	-127.5	7.5	75	63.75	86.25
1782	0	67.5	-90	-60	45	97.5	86.25	101.25
1783	-26.25	-67.5	-15	11.25	93.75	127.5	112.5	120
1784	-52.5	-52.5	15	30	97.5	120	97.5	105
1785	-45	75	-3.75	3.75	52.5	75	45	52.5
1786	-63.75	97.5	-3.75	0	37.5	48.75	18.75	26.25
1787	-108.75	33.75	22.5	22.5	45	52.5	22.5	26.25
1788	-112.5	15	48.75	48.75	67.5	71.25	41.25	45
1789	-71.25	60	90	93.75	105	108.75	75	82.5
1790	-63.75	75	105	108.75	112.5	112.5	82.5	86.25
1791	-93.75	37.5	86.25	82.5	82.5	82.5	52.5	56.25
1792	-86.25	60	86.25	82.5	78.75	75	45	52.5
1793	-22.5	67.5	93.75	97.5	82.5	78.75	52.5	63.75
1794	18.75	11.25	86.25	93.75	75	63.75	41.25	60
1795	0	-15	86.25	90	67.5	56.25	33.75	52.5
1796	-3.75	0	86.25	90	63.75	52.5	33.75	48.75
1797	0	3.75	93.75	97.5	67.5	48.75	26.25	48.75
1798	-3.75	-15	90	93.75	60	37.5	11.25	33.75
1799	-26.25	-48.75	90	90	52.5	33.75	3.75	22.5
1800	-82.5	-56.25	90	90	52.5	33.75	3.75	22.5
1801	-105	-3.75	78.75	86.25	45	30	-3.75	11.25
1802	-71.25	37.5	86.25	93.75	56.25	41.25	3.75	22.5
1803	-63.75	18.75	101.25	112.5	75	56.25	22.5	41.25
1804	-78.75	3.75	108.75	123.75	82.5	67.5	37.5	52.5
1805	-37.5	7.5	93.75	112.5	71.25	56.25	26.25	45
1806	18.75	15	75	97.5	52.5	33.75	7.5	30
1807	30	18.75	67.5	93.75	48.75	30	7.5	26.25
1808	37.5	22.5	82.5	105	56.25	41.25	15	33.75
1809	56.25	41.25	86.25	105	56.25	41.25	11.25	26.25
1810	33.75	33.75	82.5	105	56.25	41.25	11.25	26.25
1811	3.75	15	86.25	112.5	63.75	48.75	18.75	30
1812	-22.5	30	97.5	123.75	78.75	63.75	37.5	48.75
1813	-45	37.5	112.5	142.5	97.5	82.5	52.5	63.75
1814	-67.5	3.75	120	157.5	108.75	90	52.5	63.75
1815	-60	22.5	108.75	146.25	101.25	78.75	41.25	52.5
1816	-15	93.75	93.75	138.75	90	71.25	33.75	48.75
1817	41.25	101.25	82.5	131.25	82.5	56.25	22.5	41.25
1818	60	33.75	82.5	131.25	78.75	52.5	18.75	41.25
1819	30	-37.5	93.75	142.5	86.25	63.75	33.75	52.5
1820	3.75	-71.25	97.5	146.25	90	63.75	33.75	48.75
1821	15	-30	105	153.75	97.5	75	45	60
1822	56.25	48.75	101.25	153.75	101.25	78.75	48.75	67.5
1823	48.75	63.75	93.75	157.5	101.25	82.5	48.75	63.75
1824	-3.75	45	101.25	165	108.75	90	56.25	63.75
1825	-37.5	48.75	108.75	172.5	123.75	101.25	67.5	75
1826	-15	71.25	105	176.25	123.75	101.25	63.75	71.25
1827	26.25	93.75	97.5	172.5	120	97.5	60	71.25
1828	37.5	93.75	93.75	172.5	120	93.75	56.25	71.25
1829	52.5	48.75	82.5	161.25	105	82.5	45	63.75
1830	82.5	7.5	78.75	161.25	105	78.75	45	67.5
1831	78.75	3.75	93.75	176.25	120	97.5	63.75	82.5
1832	56.25	0	97.5	183.75	127.5	101.25	71.25	82.5
1833	33.75	-11.25	101.25	187.5	131.25	105	71.25	82.5
1834	52.5	7.5	105	198.75	138.75	112.5	78.75	86.25
1835	71.25	56.25	101.25	198.75	138.75	112.5	75	82.5
1836	33.75	82.5	97.5	195	142.5	112.5	78.75	78.75
1837	-7.5	90	101.25	198.75	142.5	116.25	78.75	78.75
1838	22.5	116.25	97.5	206.25	150	116.25	78.75	82.5
1839	41.25	135	97.5	210	153.75	120	82.5	86.25
1840	33.75	116.25	93.75	210	153.75	123.75	82.5	86.25
1841	112.5	101.25	86.25	198.75	142.5	108.75	71.25	78.75
1842	168.75	90	71.25	187.5	127.5	93.75	60	71.25
1843	138.75	75	75	191.25	131.25	97.5	67.5	75
1844	127.5	97.5	63.75	183.75	123.75	90	60	71.25
1845	135	146.25	67.5	183.75	127.5	101.25	67.5	78.75
1846	138.75	120	90	213.75	157.5	131.25	101.25	108.75
1847	120	33.75	120	247.5	191.25	161.25	127.5	131.25
1848	52.5	11.25	127.5	255	195	168.75	131.25	131.25
1849	7.5	45	108.75	236.25	180	150	108.75	112.5
1850	22.5	18.75	108.75	243.75	183.75	153.75	116.25	120
1851	37.5	-26.25	127.5	262.5	202.5	172.5	135	142.5
1852	75	45	120	258.75	198.75	168.75	127.5	135
1853	146.25	153.75	82.5	228.75	168.75	135	101.25	108.75
1854	180	183.75	60	202.5	138.75	108.75	75	90
1855	168.75	172.5	60	202.5	138.75	108.75	78.75	93.75
1856	153.75	153.75	71.25	213.75	150	120	93.75	105
1857	135	120	75	217.5	150	123.75	97.5	108.75
1858	127.5	108.75	75	217.5	150	123.75	93.75	105
1859	123.75	142.5	71.25	217.5	153.75	127.5	93.75	108.75
1860	127.5	176.25	78.75	228.75	161.25	138.75	105	116.25
1861	123.75	138.75	101.25	251.25	183.75	161.25	127.5	135
1862	127.5	78.75	120	270	198.75	176.25	142.5	146.25
1863	150	86.25	112.5	262.5	195	172.5	138.75	146.25
1864	172.5	112.5	97.5	251.25	180	157.5	127.5	142.5
1865	213.75	108.75	97.5	247.5	172.5	150	127.5	142.5
1866	240	86.25	82.5	228.75	150	131.25	108.75	131.25
1867	217.5	63.75	78.75	217.5	138.75	123.75	101.25	127.5
1868	191.25	52.5	93.75	225	142.5	131.25	112.5	131.25
1869	183.75	63.75	105	228.75	146.25	135	116.25	135
1870	187.5	75	112.5	236.25	153.75	138.75	123.75	142.5
1871	176.25	71.25	108.75	228.75	146.25	131.25	112.5	135
1872	142.5	86.25	105	221.25	131.25	116.25	97.5	116.25
1873	127.5	101.25	101.25	213.75	123.75	108.75	86.25	105
1874	142.5	116.25	101.25	213.75	120	108.75	86.25	108.75
1875	146.25	127.5	97.5	210	116.25	105	86.25	112.5
1876	131.25	101.25	105	210	116.25	108.75	90	120
1877	165	71.25	108.75	206.25	116.25	108.75	93.75	127.5
1878	225	71.25	101.25	198.75	101.25	97.5	90	127.5
1879	225	90	86.25	176.25	78.75	75	67.5	101.25
1880	210	101.25	82.5	168.75	67.5	63.75	56.25	93.75
1881	195	52.5	86.25	161.25	60	52.5	52.5	90
1882	165	18.75	93.75	157.5	52.5	48.75	45	90
1883	142.5	37.5	97.5	153.75	45	41.25	41.25	82.5
1884	135	63.75	112.5	165	56.25	52.5	52.5	90
1885	120	82.5	120	165	56.25	60	52.5	90
1886	127.5	108.75	116.25	157.5	48.75	56.25	48.75	86.25
1887	168.75	135	116.25	153.75	45	52.5	48.75	86.25
1888	183.75	127.5	116.25	153.75	41.25	48.75	45	86.25
1889	221.25	116.25	112.5	142.5	26.25	30	33.75	75
1890	236.25	105	101.25	123.75	3.75	3.75	11.25	56.25
1891	206.25	97.5	97.5	112.5	-7.5	-7.5	0	48.75
1892	195	86.25	105	116.25	-3.75	-3.75	3.75	52.5
1893	191.25	71.25	116.25	116.25	-3.75	-3.75	3.75	52.5
1894	161.25	67.5	123.75	120	-3.75	0	3.75	52.5
1895	142.5	71.25	138.75	127.5	3.75	3.75	3.75	56.25
1896	105	48.75	142.5	131.25	3.75	3.75	0	45
1897	48.75	33.75	142.5	123.75	-3.75	-7.5	-15	26.25
1898	15	41.25	142.5	123.75	-3.75	-7.5	-15	22.5
1899	52.5	48.75	146.25	123.75	0	-7.5	-15	26.25
1900	116.25	63.75	161.25	135	11.25	3.75	-3.75	37.5
1901	146.25	78.75	153.75	127.5	0	-7.5	-11.25	30
1902	142.5	56.25	135	105	-18.75	-26.25	-30	15
1903	127.5	26.25	135	101.25	-22.5	-30	-33.75	11.25
1904	123.75	3.75	146.25	108.75	-11.25	-18.75	-22.5	18.75
1905	135	-26.25	161.25	123.75	7.5	-3.75	-7.5	33.75
1906	120	-30	172.5	131.25	15	3.75	-3.75	37.5
1907	71.25	-15	168.75	120	7.5	-7.5	-15	22.5
1908	22.5	-15	157.5	108.75	0	-15	-26.25	7.5
1909	-22.5	-26.25	150	97.5	-11.25	-26.25	-41.25	-7.5
1910	-48.75	-15	131.25	78.75	-30	-45	-60	-22.5
1911	-11.25	18.75	131.25	78.75	-22.5	-37.5	-52.5	-11.25
1912	60	52.5	138.75	93.75	-7.5	-18.75	-33.75	7.5
1913	105	71.25	135	90	-11.25	-26.25	-41.25	-3.75
1914	135	56.25	127.5	78.75	-22.5	-37.5	-52.5	-15
1915	131.25	33.75	135	78.75	-18.75	-37.5	-56.25	-18.75
1916	101.25	37.5	131.25	67.5	-33.75	-52.5	-71.25	-37.5
1917	86.25	37.5	116.25	48.75	-48.75	-71.25	-90	-56.25
1918	82.5	30	112.5	48.75	-48.75	-71.25	-86.25	-52.5
1919	60	33.75	123.75	60	-37.5	-56.25	-75	-37.5
1920	30	48.75	135	67.5	-22.5	-37.5	-56.25	-22.5
1921	11.25	41.25	131.25	67.5	-18.75	-33.75	-52.5	-18.75
1922	0	15	138.75	75	-11.25	-22.5	-45	-11.25
1923	-7.5	-3.75	150	86.25	0	-15	-33.75	0
1924	22.5	-11.25	142.5	78.75	-3.75	-22.5	-41.25	-7.5
1925	75	-18.75	131.25	67.5	-15	-33.75	-52.5	-18.75
1926	112.5	-33.75	131.25	63.75	-18.75	-37.5	-52.5	-11.25
1927	105	-75	142.5	71.25	-15	-30	-41.25	0
1928	63.75	-112.5	150	75	-11.25	-26.25	-41.25	-3.75
1929	48.75	-75	138.75	63.75	-22.5	-41.25	-56.25	-18.75
1930	63.75	7.5	108.75	30	-52.5	-71.25	-86.25	-48.75
1931	45	26.25	97.5	18.75	-63.75	-78.75	-93.75	-56.25
1932	0	-3.75	116.25	41.25	-41.25	-52.5	-75	-41.25
1933	-18.75	11.25	120	45	-37.5	-45	-71.25	-37.5
1934	-22.5	37.5	120	45	-37.5	-45	-67.5	-33.75
1935	-33.75	18.75	127.5	48.75	-33.75	-45	-63.75	-33.75
1936	-33.75	-18.75	127.5	52.5	-30	-41.25	-60	-30
1937	-7.5	-67.5	123.75	45	-33.75	-45	-63.75	-26.25
1938	41.25	-105	116.25	37.5	-45	-52.5	-71.25	-30
1939	45	-112.5	108.75	26.25	-56.25	-63.75	-78.75	-41.25
1940	30	-108.75	116.25	30	-52.5	-60	-71.25	-41.25
1941	37.5	-60	123.75	37.5	-45	-52.5	-67.5	-33.75
1942	48.75	3.75	116.25	33.75	-52.5	-63.75	-82.5	-45
1943	41.25	18.75	108.75	26.25	-60	-71.25	-90	-56.25
1944	18.75	22.5	116.25	37.5	-45	-56.25	-75	-45
1945	-7.5	18.75	127.5	45	-37.5	-41.25	-63.75	-33.75
1946	3.75	18.75	120	41.25	-37.5	-48.75	-67.5	-37.5
1947	26.25	30	112.5	37.5	-41.25	-52.5	-71.25	-41.25
1948	18.75	37.5	105	30	-45	-56.25	-78.75	-48.75
1949	18.75	3.75	97.5	26.25	-52.5	-63.75	-86.25	-48.75
1950	45	-56.25	105	30	-48.75	-60	-78.75	-41.25
1951	52.5	-75	116.25	37.5	-41.25	-52.5	-71.25	-33.75
1952	48.75	-48.75	120	41.25	-33.75	-45	-63.75	-26.25
1953	67.5	-18.75	116.25	41.25	-33.75	-45	-63.75	-30
1954	78.75	-3.75	112.5	41.25	-37.5	-45	-67.5	-33.75
1955	52.5	-15	120	48.75	-26.25	-37.5	-60	-30
1956	18.75	-15	131.25	60	-15	-30	-52.5	-22.5
1957	15	11.25	123.75	52.5	-22.5	-33.75	-60	-30
1958	22.5	7.5	123.75	60	-15	-30	-52.5	-22.5
1959	33.75	7.5	120	56.25	-15	-30	-56.25	-18.75
1960	48.75	30	105	41.25	-33.75	-48.75	-71.25	-33.75
1961	67.5	3.75	108.75	45	-30	-45	-63.75	-26.25
1962	90	-22.5	108.75	41.25	-30	-41.25	-56.25	-18.75
1963	82.5	3.75	90	30	-41.25	-52.5	-67.5	-30
1964	63.75	45	82.5	18.75	-48.75	-60	-75	-41.25
1965	48.75	41.25	93.75	30	-37.5	-45	-60	-30
1966	52.5	0	108.75	48.75	-22.5	-30	-48.75	-15
1967	63.75	-18.75	112.5	52.5	-15	-30	-45	-11.25
1968	37.5	-11.25	120	60	-3.75	-18.75	-37.5	-7.5
1969	7.5	-7.5	123.75	67.5	3.75	-11.25	-30	-3.75
1970	-15	-7.5	112.5	60	-3.75	-15	-37.5	-7.5
1971	-3.75	15	108.75	56.25	-7.5	-18.75	-41.25	-7.5
1972	45	52.5	108.75	56.25	-3.75	-18.75	-41.25	-7.5
1973	90	48.75	105	48.75	-11.25	-26.25	-45	-11.25
1974	127.5	11.25	97.5	48.75	-18.75	-33.75	-52.5	-15
1975	127.5	3.75	90	41.25	-22.5	-37.5	-56.25	-18.75
1976	105	7.5	90	37.5	-22.5	-41.25	-52.5	-22.5
1977	105	3.75	97.5	45	-15	-30	-48.75	-18.75
1978	108.75	18.75	90	37.5	-26.25	-41.25	-60	-30
1979	86.25	22.5	86.25	33.75	-30	-45	-63.75	-33.75
1980	45	-15	101.25	45	-15	-30	-45	-22.5
1981	18.75	-52.5	112.5	60	3.75	-7.5	-26.25	-7.5
1982	26.25	-41.25	116.25	67.5	15	3.75	-18.75	7.5
1983	48.75	-7.5	116.25	67.5	15	3.75	-15	11.25
1984	75	15	112.5	67.5	15	3.75	-15	11.25
1985	112.5	37.5	105	60	7.5	0	-18.75	11.25
1986	127.5	22.5	97.5	48.75	-7.5	-18.75	-37.5	0
1987	105	-3.75	93.75	41.25	-15	-30	-45	-11.25
1988	97.5	-3.75	97.5	45	-11.25	-22.5	-37.5	-3.75
1989	101.25	-15	105	52.5	-3.75	-11.25	-26.25	3.75
1990	67.5	-52.5	97.5	41.25	-18.75	-22.5	-41.25	-11.25
1991	7.5	-75	78.75	18.75	-37.5	-45	-63.75	-37.5
1992	-18.75	-41.25	71.25	11.25	-45	-52.5	-75	-48.75
1993	3.75	-3.75	78.75	18.75	-37.5	-41.25	-63.75	-37.5
1994	48.75	22.5	93.75	37.5	-15	-18.75	-37.5	-11.25
1995	78.75	67.5	93.75	41.25	-11.25	-15	-33.75	-7.5
1996	93.75	86.25	90	37.5	-15	-18.75	-37.5	-3.75
1997	123.75	75	82.5	30	-22.5	-26.25	-45	-7.5
1998	153.75	56.25	78.75	22.5	-33.75	-37.5	-52.5	-15
1999	142.5	15	71.25	15	-41.25	-48.75	-60	-22.5
2000	112.5	-3.75	75	18.75	-33.75	-37.5	-48.75	-11.25
2001	78.75	0	78.75	18.75	-37.5	-37.5	-52.5	-11.25
2002	78.75	15	75	11.25	-45	-48.75	-60	-22.5
2003	86.25	30	63.75	-3.75	-63.75	-67.5	-82.5	-48.75
2004	41.25	26.25	52.5	-15	-78.75	-86.25	-105	-71.25
2005	11.25	60	56.25	-11.25	-71.25	-78.75	-101.25	-71.25
2006	37.5	101.25	67.5	3.75	-52.5	-60	-78.75	-45
2007	60	71.25	67.5	7.5	-48.75	-56.25	-71.25	-30
2008	67.5	11.25	75	15	-41.25	-45	-60	-18.75
2009	108.75	-3.75	78.75	18.75	-37.5	-37.5	-52.5	-7.5
2010	135	0	71.25	7.5	-48.75	-48.75	-56.25	-15
2011	127.5	-7.5	75	3.75	-52.5	-52.5	-60	-18.75
2012	108.75	-26.25	78.75	7.5	-48.75	-48.75	-60	-22.5
2013	105	-52.5	82.5	7.5	-45	-48.75	-60	-22.5
2014	105	-60	75	0	-56.25	-56.25	-67.5	-30
2015	86.25	-30	71.25	-7.5	-67.5	-63.75	-71.25	-33.75
2016	52.5	-11.25	75	-3.75	-63.75	-56.25	-67.5	-33.75
2017	37.5	-26.25	82.5	3.75	-52.5	-48.75	-60	-26.25
2018	37.5	-18.75	82.5	7.5	-48.75	-45	-60	-26.25
2019	37.5	18.75	67.5	-7.5	-63.75	-60	-75	-41.25
2020	41.25	22.5	63.75	-11.25	-67.5	-67.5	-82.5	-45
2021	82.5	-11.25	67.5	-7.5	-67.5	-63.75	-78.75	-37.5
2022	142.5	-30	63.75	-15	-75	-71.25	-82.5	-37.5
2023	138.75	-52.5	71.25	-11.25	-71.25	-67.5	-78.75	-37.5
2024	108.75	-60	71.25	-11.25	-71.25	-67.5	-78.75	-41.25
2025	93.75	-56.25	75	-11.25	-71.25	-67.5	-75	-37.5
2026	90	-67.5	78.75	-7.5	-71.25	-63.75	-71.25	-37.5
2027	82.5	-60	75	-11.25	-75	-71.25	-78.75	-48.75
2028	41.25	-15	56.25	-33.75	-93.75	-90	-105	-75
2029	3.75	11.25	41.25	-48.75	-108.75	-105	-120	-90
2030	18.75	-11.25	45	-45	-101.25	-97.5	-112.5	-78.75
2031	60	-22.5	48.75	-37.5	-93.75	-90	-105	-63.75
2032	86.25	18.75	52.5	-33.75	-90	-86.25	-97.5	-52.5
2033	135	52.5	48.75	-33.75	-90	-86.25	-93.75	-45
2034	176.25	22.5	45	-37.5	-97.5	-90	-93.75	-48.75
2035	150	-15	45	-45	-101.25	-97.5	-101.25	-56.25
2036	112.5	-30	48.75	-45	-101.25	-97.5	-101.25	-60
2037	123.75	-3.75	52.5	-45	-105	-101.25	-108.75	-67.5
2038	135	26.25	45	-52.5	-116.25	-112.5	-120	-78.75
2039	105	11.25	37.5	-60	-120	-116.25	-123.75	-82.5
2040	52.5	-26.25	45	-52.5	-112.5	-108.75	-116.25	-75
2041	22.5	-48.75	63.75	-30	-93.75	-86.25	-93.75	-60
2042	18.75	-26.25	71.25	-22.5	-82.5	-75	-86.25	-48.75
2043	45	26.25	60	-30	-90	-86.25	-97.5	-56.25
2044	67.5	37.5	56.25	-37.5	-97.5	-97.5	-105	-63.75
2045	93.75	3.75	56.25	-33.75	-97.5	-97.5	-101.25	-56.25
2046	108.75	-48.75	56.25	-33.75	-97.5	-97.5	-97.5	-48.75
2047	116.25	-82.5	63.75	-30	-90	-86.25	-90	-41.25
2048	105	-90	67.5	-26.25	-82.5	-75	-78.75	-30
2049	97.5	-75	67.5	-30	-86.25	-78.75	-78.75	-33.75
2050	97.5	-56.25	67.5	-26.25	-86.25	-78.75	-86.25	-41.25
2051	93.75	-48.75	63.75	-33.75	-93.75	-90	-93.75	-52.5
2052	78.75	-37.5	63.75	-33.75	-93.75	-86.25	-93.75	-52.5
2053	41.25	-30	60	-41.25	-97.5	-90	-97.5	-60
2054	30	-22.5	60	-37.5	-93.75	-86.25	-93.75	-56.25
2055	45	-11.25	56.25	-37.5	-93.75	-86.25	-97.5	-56.25
2056	63.75	3.75	52.5	-45	-97.5	-93.75	-105	-60
2057	127.5	33.75	41.25	-52.5	-105	-105	-116.25	-67.5
2058	165	15	33.75	-60	-116.25	-120	-123.75	-71.25
2059	153.75	-15	41.25	-56.25	-112.5	-116.25	-120	-71.25
2060	161.25	11.25	41.25	-60	-116.25	-116.25	-120	-75
2061	138.75	26.25	41.25	-67.5	-123.75	-123.75	-127.5	-82.5
2062	105	30	37.5	-71.25	-131.25	-131.25	-135	-93.75
2063	93.75	3.75	45	-63.75	-123.75	-123.75	-127.5	-86.25
2064	75	-37.5	63.75	-37.5	-97.5	-101.25	-105	-67.5
2065	63.75	-18.75	90	-15	-71.25	-71.25	-78.75	-41.25
2066	71.25	41.25	97.5	-7.5	-63.75	-60	-71.25	-33.75
2067	78.75	56.25	97.5	-11.25	-67.5	-63.75	-75	-33.75
2068	82.5	48.75	97.5	-11.25	-67.5	-67.5	-75	-33.75
2069	120	67.5	86.25	-22.5	-78.75	-75	-82.5	-37.5
2070	150	63.75	78.75	-33.75	-90	-90	-93.75	-45
2071	135	30	82.5	-37.5	-97.5	-97.5	-101.25	-56.25
2072	116.25	22.5	101.25	-22.5	-86.25	-86.25	-93.75	-48.75
2073	120	30	116.25	-11.25	-75	-75	-82.5	-37.5
2074	135	41.25	108.75	-15	-78.75	-82.5	-90	-48.75
2075	135	56.25	101.25	-22.5	-86.25	-86.25	-93.75	-56.25
2076	93.75	45	116.25	-7.5	-71.25	-71.25	-78.75	-45
2077	52.5	15	131.25	7.5	-52.5	-52.5	-63.75	-30
2078	63.75	18.75	138.75	18.75	-45	-45	-60	-22.5
2079	75	15	150	30	-37.5	-41.25	-56.25	-18.75
2080	93.75	3.75	161.25	41.25	-30	-33.75	-48.75	-11.25
2081	131.25	22.5	146.25	26.25	-45	-48.75	-63.75	-18.75
2082	161.25	37.5	123.75	3.75	-67.5	-75	-82.5	-33.75
2083	138.75	30	108.75	-11.25	-78.75	-86.25	-90	-37.5
2084	116.25	30	108.75	-3.75	-67.5	-71.25	-75	-22.5
2085	131.25	67.5	101.25	3.75	-60	-60	-60	-11.25
2086	161.25	108.75	82.5	-3.75	-63.75	-63.75	-63.75	-18.75
2087	183.75	120	52.5	-18.75	-75	-75	-75	-30
2088	172.5	108.75	45	-22.5	-71.25	-63.75	-67.5	-26.25
2089	153.75	101.25	63.75	3.75	-45	-33.75	-45	-7.5
2090	146.25	105	71.25	11.25	-33.75	-26.25	-41.25	-3.75
2091	150	108.75	56.25	-3.75	-48.75	-37.5	-52.5	-15
2092	142.5	101.25	37.5	-18.75	-63.75	-48.75	-60	-22.5
2093	165	97.5	11.25	-45	-86.25	-75	-82.5	-41.25
2094	183.75	90	-11.25	-75	-116.25	-101.25	-105	-56.25
2095	150	56.25	-15	-86.25	-127.5	-116.25	-116.25	-67.5
2096	142.5	18.75	-7.5	-78.75	-123.75	-105	-108.75	-60
2097	153.75	3.75	11.25	-63.75	-108.75	-90	-93.75	-45
2098	157.5	-11.25	33.75	-52.5	-97.5	-82.5	-82.5	-33.75
2099	153.75	-18.75	48.75	-33.75	-82.5	-71.25	-71.25	-30
2100	131.25	-3.75	56.25	-22.5	-71.25	-63.75	-67.5	-30
2101	101.25	11.25	60	-22.5	-67.5	-60	-67.5	-33.75
2102	82.5	22.5	56.25	-26.25	-75	-63.75	-71.25	-33.75
2103	97.5	30	48.75	-30	-82.5	-71.25	-78.75	-37.5
2104	112.5	26.25	48.75	-33.75	-86.25	-75	-82.5	-41.25
2105	153.75	37.5	45	-41.25	-93.75	-82.5	-86.25	-41.25
2106	210	33.75	41.25	-48.75	-101.25	-90	-93.75	-45
2107	198.75	7.5	33.75	-60	-112.5	-101.25	-101.25	-56.25
2108	161.25	-7.5	33.75	-60	-116.25	-105	-101.25	-60
2109	142.5	-11.25	30	-63.75	-120	-112.5	-108.75	-63.75
2110	138.75	-11.25	30	-67.5	-127.5	-120	-120	-67.5
2111	142.5	3.75	30	-71.25	-127.5	-127.5	-123.75	-71.25
2112	108.75	-7.5	30	-75	-131.25	-131.25	-131.25	-82.5
2113	67.5	-18.75	30	-78.75	-135	-131.25	-135	-90
2114	52.5	-22.5	33.75	-71.25	-127.5	-123.75	-127.5	-78.75
2115	67.5	-30	48.75	-56.25	-112.5	-108.75	-108.75	-60
2116	63.75	-48.75	41.25	-63.75	-120	-116.25	-116.25	-67.5
2117	101.25	-56.25	26.25	-78.75	-135	-131.25	-131.25	-82.5
2118	161.25	-67.5	18.75	-82.5	-138.75	-135	-135	-82.5
2119	153.75	-75	15	-86.25	-146.25	-142.5	-138.75	-90
2120	150	-33.75	26.25	-78.75	-142.5	-138.75	-135	-90
2121	172.5	30	26.25	-78.75	-142.5	-135	-135	-90
2122	157.5	26.25	11.25	-93.75	-153.75	-146.25	-146.25	-105
2123	101.25	-22.5	3.75	-105	-165	-153.75	-150	-108.75
2124	63.75	-67.5	22.5	-82.5	-142.5	-131.25	-127.5	-86.25
2125	45	-127.5	48.75	-52.5	-108.75	-101.25	-101.25	-60
2126	56.25	-112.5	56.25	-45	-97.5	-90	-90	-52.5
2127	78.75	-48.75	45	-52.5	-105	-101.25	-101.25	-63.75
2128	82.5	-30	37.5	-60	-116.25	-116.25	-116.25	-75
2129	123.75	-15	26.25	-67.5	-123.75	-123.75	-127.5	-78.75
2130	183.75	3.75	15	-82.5	-138.75	-138.75	-138.75	-86.25
2131	183.75	-7.5	11.25	-90	-146.25	-142.5	-138.75	-86.25
2132	161.25	-33.75	15	-86.25	-142.5	-138.75	-131.25	-82.5
2133	146.25	-45	15	-90	-142.5	-138.75	-131.25	-86.25
2134	135	-41.25	18.75	-86.25	-142.5	-138.75	-135	-90
2135	131.25	-52.5	26.25	-78.75	-146.25	-146.25	-142.5	-101.25
2136	105	-90	60	-45	-127.5	-142.5	-146.25	-108.75
2137	56.25	-112.5	127.5	26.25	-97.5	-135	-150	-120
2138	48.75	-123.75	202.5	93.75	-82.5	-153.75	-180	-150
2139	82.5	-153.75	277.5	161.25	-82.5	-187.5	-228.75	-195
2140	138.75	-153.75	348.75	221.25	-78.75	-217.5	-262.5	-221.25
2141	172.5	-123.75	397.5	277.5	-71.25	-232.5	-277.5	-232.5
2142	195	-82.5	438.75	345	-37.5	-225	-273.75	-225
2143	243.75	-15	487.5	431.25	26.25	-180	-236.25	-187.5
2144	273.75	60	528.75	517.5	101.25	-112.5	-176.25	-138.75
2145	277.5	116.25	547.5	573.75	165	-52.5	-120	-93.75
2146	296.25	165	558.75	626.25	225	15	-56.25	-41.25
2147	363.75	258.75	581.25	701.25	307.5	105	30	33.75
2148	423.75	401.25	588.75	783.75	420	228.75	153.75	138.75
2149	442.5	525	540	795	521.25	367.5	292.5	266.25
2150	461.25	622.5	442.5	723.75	596.25	498.75	431.25	397.5
2151	547.5	750	311.25	648.75	693.75	663.75	603.75	555
2152	630	903.75	221.25	618.75	828.75	858.75	802.5	727.5
2153	682.5	1095	168.75	611.25	971.25	1061.25	1005	911.25
2154	735	1331.25	26.25	457.5	1020	1218.75	1196.25	1098.75
2155	712.5	1537.5	-217.5	157.5	986.25	1342.5	1380	1290
2156	701.25	1653.75	-487.5	-198.75	926.25	1455	1541.25	1451.25
2157	708.75	1695	-731.25	-506.25	907.5	1582.5	1698.75	1597.5
2158	663.75	1683.75	-892.5	-690	952.5	1743.75	1867.5	1732.5
2159	596.25	1627.5	-911.25	-712.5	1065	1912.5	2013.75	1822.5
2160	521.25	1533.75	-896.25	-705	1162.5	2025	2077.5	1826.25
2161	442.5	1496.25	-971.25	-791.25	1158.75	2028.75	2051.25	1758.75
2162	367.5	1462.5	-1076.25	-918.75	1042.5	1897.5	1908.75	1620
2163	277.5	1286.25	-1072.5	-971.25	858.75	1635	1635	1376.25
2164	191.25	1031.25	-993.75	-978.75	622.5	1271.25	1278.75	1080
2165	153.75	802.5	-960	-1061.25	273.75	832.5	892.5	795
2166	127.5	596.25	-963.75	-1188.75	-131.25	360	495	510
2167	56.25	412.5	-922.5	-1252.5	-423.75	7.5	183.75	277.5
2168	-3.75	273.75	-840	-1200	-521.25	-157.5	11.25	127.5
2169	-11.25	180	-757.5	-1068.75	-480	-191.25	-71.25	33.75
2170	7.5	135	-693.75	-922.5	-393.75	-168.75	-97.5	-18.75
2171	22.5	120	-630	-783.75	-307.5	-123.75	-82.5	-26.25
2172	15	105	-555	-671.25	-251.25	-78.75	-45	-7.5
2173	11.25	112.5	-480	-577.5	-221.25	-52.5	-22.5	11.25
2174	15	108.75	-405	-476.25	-180	-33.75	-7.5	30
2175	48.75	97.5	-330	-363.75	-123.75	-3.75	15	52.5
2176	105	127.5	-270	-266.25	-71.25	26.25	37.5	67.5
2177	168.75	157.5	-221.25	-198.75	-37.5	37.5	41.25	71.25
2178	217.5	142.5	-180	-153.75	-22.5	33.75	30	60
2179	206.25	120	-127.5	-105	0	41.25	30	52.5
2180	202.5	123.75	-82.5	-63.75	18.75	41.25	30	45
2181	206.25	135	-56.25	-48.75	11.25	26.25	11.25	26.25
2182	191.25	123.75	-26.25	-22.5	15	26.25	11.25	22.5
2183	161.25	82.5	0	-3.75	22.5	26.25	7.5	18.75
2184	116.25	75	11.25	3.75	18.75	15	-7.5	3.75
2185	105	90	18.75	15	18.75	11.25	-15	-3.75
2186	123.75	86.25	37.5	30	22.5	11.25	-11.25	0
2187	146.25	93.75	45	37.5	22.5	7.5	-15	3.75
2188	153.75	86.25	52.5	45	26.25	11.25	-15	7.5
2189	180	67.5	56.25	48.75	22.5	7.5	-18.75	7.5
2190	228.75	78.75	45	41.25	3.75	-15	-37.5	-7.5
2191	232.5	60	37.5	30	-11.25	-33.75	-52.5	-18.75
2192	191.25	3.75	45	33.75	-15	-37.5	-56.25	-30
2193	176.25	-30	48.75	33.75	-15	-41.25	-60	-37.5
2194	225	15	63.75	52.5	0	-30	-56.25	-26.25
2195	213.75	52.5	78.75	63.75	7.5	-26.25	-52.5	-22.5
2196	180	86.25	75	60	0	-30	-60	-33.75
2197	198.75	153.75	75	67.5	3.75	-26.25	-56.25	-30
2198	217.5	191.25	78.75	75	11.25	-18.75	-48.75	-22.5
2199	213.75	157.5	71.25	71.25	3.75	-26.25	-52.5	-18.75
2200	202.5	93.75	71.25	71.25	3.75	-26.25	-56.25	-22.5
2201	213.75	82.5	75	75	7.5	-26.25	-56.25	-22.5
2202	247.5	82.5	82.5	86.25	11.25	-26.25	-56.25	-18.75
2203	236.25	30	86.25	86.25	11.25	-30	-56.25	-15
2204	225	3.75	86.25	86.25	7.5	-26.25	-48.75	-15
2205	225	3.75	90	90	11.25	-22.5	-48.75	-18.75
2206	217.5	22.5	82.5	90	11.25	-26.25	-48.75	-22.5
2207	206.25	75	75	82.5	3.75	-26.25	-48.75	-22.5
2208	191.25	116.25	75	86.25	7.5	-22.5	-48.75	-22.5
2209	153.75	112.5	78.75	93.75	11.25	-15	-45	-18.75
2210	131.25	93.75	86.25	101.25	22.5	-7.5	-33.75	-11.25
2211	157.5	71.25	105	123.75	45	15	-15	11.25
2212	198.75	82.5	112.5	135	52.5	26.25	-7.5	18.75
2213	232.5	82.5	97.5	123.75	41.25	11.25	-15	11.25
2214	262.5	18.75	90	120	33.75	3.75	-18.75	11.25
2215	270	-3.75	101.25	131.25	45	11.25	-15	18.75
2216	251.25	22.5	97.5	123.75	37.5	0	-26.25	0
2217	236.25	22.5	97.5	123.75	37.5	0	-26.25	0
2218	247.5	30	112.5	146.25	56.25	26.25	3.75	26.25
2219	247.5	41.25	116.25	153.75	63.75	33.75	11.25	33.75
2220	225	45	105	142.5	60	30	0	18.75
2221	187.5	67.5	101.25	142.5	60	30	-3.75	11.25
2222	191.25	135	101.25	146.25	60	30	-3.75	15
2223	240	172.5	108.75	157.5	67.5	37.5	3.75	22.5
2224	243.75	138.75	112.5	165	78.75	41.25	7.5	30
2225	270	116.25	108.75	165	75	41.25	3.75	30
2226	318.75	90	97.5	153.75	63.75	26.25	-7.5	18.75
2227	296.25	45	93.75	146.25	56.25	18.75	-15	15
2228	266.25	33.75	105	157.5	67.5	30	0	26.25
2229	281.25	63.75	112.5	168.75	78.75	45	15	41.25
2230	277.5	86.25	105	168.75	78.75	45	11.25	37.5
2231	251.25	86.25	97.5	161.25	71.25	33.75	3.75	26.25
2232	243.75	123.75	93.75	161.25	71.25	33.75	7.5	22.5
2233	236.25	176.25	93.75	165	78.75	45	11.25	26.25
2234	217.5	183.75	93.75	172.5	82.5	48.75	15	30
2235	240	161.25	93.75	180	90	56.25	18.75	37.5
2236	288.75	157.5	101.25	191.25	101.25	67.5	26.25	45
2237	315	168.75	97.5	191.25	101.25	63.75	22.5	41.25
2238	322.5	146.25	82.5	180	86.25	48.75	11.25	37.5
2239	322.5	116.25	78.75	180	86.25	48.75	15	37.5
2240	303.75	105	86.25	191.25	97.5	60	26.25	45
2241	285	93.75	93.75	198.75	105	63.75	30	45
2242	285	75	97.5	202.5	105	63.75	26.25	37.5
2243	296.25	82.5	105	217.5	116.25	75	41.25	48.75
2244	266.25	105	108.75	225	127.5	90	52.5	60
2245	258.75	153.75	116.25	236.25	142.5	105	63.75	71.25
2246	285	180	127.5	255	157.5	120	78.75	82.5
2247	288.75	165	135	266.25	168.75	127.5	82.5	86.25
2248	281.25	146.25	131.25	266.25	165	123.75	82.5	86.25
2249	326.25	138.75	123.75	258.75	157.5	120	78.75	90
2250	375	150	105	247.5	146.25	108.75	71.25	82.5
2251	371.25	176.25	86.25	228.75	123.75	90	52.5	67.5
2252	341.25	180	82.5	221.25	120	86.25	48.75	56.25
2253	333.75	157.5	93.75	236.25	131.25	93.75	60	67.5
2254	341.25	131.25	90	236.25	131.25	93.75	60	71.25
2255	341.25	120	105	255	146.25	112.5	75	86.25
2256	352.5	142.5	127.5	277.5	168.75	135	97.5	105
2257	330	165	138.75	296.25	183.75	150	108.75	116.25
2258	307.5	183.75	142.5	300	187.5	150	108.75	112.5
2259	330	195	123.75	281.25	172.5	135	90	97.5
2260	341.25	183.75	112.5	273.75	161.25	127.5	86.25	93.75
2261	378.75	176.25	108.75	277.5	161.25	127.5	90	105
2262	427.5	176.25	101.25	266.25	150	116.25	82.5	101.25
2263	397.5	157.5	101.25	266.25	146.25	108.75	78.75	97.5
2264	375	138.75	112.5	273.75	153.75	120	90	105
2265	386.25	135	116.25	273.75	153.75	123.75	93.75	105
2266	390	153.75	116.25	270	150	120	93.75	101.25
2267	386.25	168.75	108.75	262.5	138.75	112.5	82.5	90
2268	367.5	168.75	116.25	273.75	146.25	120	86.25	93.75
2269	333.75	195	123.75	277.5	153.75	123.75	93.75	101.25
2270	326.25	228.75	116.25	266.25	138.75	112.5	82.5	93.75
2271	345	228.75	108.75	258.75	131.25	108.75	75	90
2272	341.25	198.75	108.75	255	123.75	101.25	71.25	86.25
2273	371.25	172.5	112.5	255	127.5	101.25	75	93.75
2274	423.75	131.25	120	262.5	127.5	101.25	78.75	101.25
2275	416.25	105	127.5	262.5	127.5	97.5	78.75	101.25
2276	393.75	116.25	123.75	251.25	112.5	86.25	71.25	90
2277	408.75	131.25	116.25	243.75	101.25	75	60	78.75
2278	412.5	127.5	123.75	243.75	101.25	75	56.25	78.75
2279	390	105	131.25	247.5	101.25	75	56.25	82.5
2280	360	97.5	138.75	247.5	101.25	75	56.25	82.5
2281	352.5	135	135	243.75	93.75	67.5	52.5	75
2282	345	176.25	131.25	236.25	90	67.5	52.5	75
2283	330	176.25	138.75	236.25	93.75	67.5	56.25	82.5
2284	345	183.75	135	225	78.75	56.25	45	71.25
2285	382.5	213.75	123.75	210	60	41.25	26.25	60
2286	420	232.5	105	180	30	7.5	-3.75	33.75
2287	431.25	221.25	93.75	165	11.25	-15	-15	18.75
2288	420	187.5	108.75	172.5	18.75	-3.75	-7.5	30
2289	412.5	168.75	123.75	180	26.25	3.75	0	33.75
2290	397.5	168.75	123.75	176.25	18.75	-3.75	-7.5	30
2291	371.25	157.5	135	180	18.75	-3.75	-7.5	30
2292	333.75	120	157.5	195	37.5	11.25	3.75	37.5
2293	288.75	97.5	176.25	206.25	48.75	22.5	18.75	45
2294	266.25	123.75	180	206.25	52.5	26.25	22.5	52.5
2295	288.75	135	172.5	195	41.25	18.75	11.25	45
2296	303.75	108.75	165	183.75	30	3.75	0	30
2297	315	97.5	153.75	165	11.25	-11.25	-18.75	15
2298	341.25	101.25	135	138.75	-11.25	-37.5	-41.25	0
2299	315	82.5	135	138.75	-15	-45	-48.75	-7.5
2300	281.25	56.25	142.5	135	-18.75	-52.5	-56.25	-18.75
2301	307.5	78.75	153.75	138.75	-11.25	-45	-52.5	-15
2302	337.5	108.75	157.5	135	-15	-41.25	-45	-7.5
2303	307.5	112.5	157.5	131.25	-15	-37.5	-41.25	0
2304	255	105	153.75	127.5	-22.5	-41.25	-45	-7.5
2305	232.5	120	146.25	116.25	-26.25	-48.75	-52.5	-18.75
2306	232.5	112.5	157.5	131.25	-7.5	-30	-37.5	0
2307	240	78.75	165	138.75	0	-15	-22.5	11.25
2308	255	93.75	153.75	127.5	-11.25	-26.25	-33.75	3.75
2309	288.75	150	127.5	93.75	-37.5	-56.25	-63.75	-22.5
2310	318.75	138.75	112.5	78.75	-52.5	-75	-78.75	-33.75
2311	311.25	60	123.75	82.5	-48.75	-67.5	-75	-33.75
2312	285	48.75	142.5	93.75	-37.5	-56.25	-63.75	-26.25
2313	262.5	67.5	142.5	86.25	-45	-63.75	-71.25	-33.75
2314	240	41.25	131.25	75	-52.5	-71.25	-78.75	-48.75
2315	236.25	30	127.5	71.25	-56.25	-75	-82.5	-52.5
2316	217.5	48.75	123.75	63.75	-60	-78.75	-86.25	-56.25
2317	176.25	71.25	116.25	56.25	-71.25	-86.25	-97.5	-67.5
2318	172.5	97.5	112.5	48.75	-75	-90	-105	-75
2319	225	142.5	108.75	48.75	-71.25	-86.25	-101.25	-67.5
2320	247.5	138.75	105	48.75	-71.25	-82.5	-97.5	-60
2321	240	75	101.25	41.25	-75	-86.25	-97.5	-60
2322	255	33.75	101.25	37.5	-82.5	-97.5	-101.25	-60
2323	258.75	22.5	108.75	41.25	-75	-90	-93.75	-56.25
2324	243.75	11.25	116.25	52.5	-67.5	-78.75	-86.25	-48.75
2325	240	18.75	120	45	-71.25	-86.25	-86.25	-52.5
2326	247.5	33.75	108.75	37.5	-82.5	-93.75	-97.5	-56.25
2327	228.75	22.5	101.25	30	-86.25	-93.75	-93.75	-56.25
2328	202.5	37.5	108.75	33.75	-78.75	-86.25	-82.5	-48.75
2329	168.75	78.75	108.75	26.25	-78.75	-82.5	-86.25	-56.25
2330	146.25	63.75	108.75	30	-75	-75	-82.5	-52.5
2331	183.75	48.75	131.25	52.5	-52.5	-52.5	-60	-30
2332	206.25	56.25	127.5	52.5	-56.25	-56.25	-63.75	-33.75
2333	213.75	48.75	112.5	33.75	-71.25	-75	-78.75	-45
2334	243.75	26.25	93.75	18.75	-90	-97.5	-97.5	-56.25
2335	236.25	-7.5	86.25	3.75	-105	-112.5	-112.5	-71.25
2336	217.5	-7.5	90	3.75	-105	-116.25	-120	-78.75
2337	221.25	11.25	90	3.75	-108.75	-120	-120	-82.5
2338	228.75	15	86.25	0	-112.5	-123.75	-127.5	-86.25
2339	240	33.75	86.25	0	-112.5	-123.75	-123.75	-86.25
2340	206.25	45	90	3.75	-105	-112.5	-112.5	-78.75
2341	165	86.25	82.5	0	-101.25	-105	-108.75	-75
2342	180	172.5	75	-3.75	-101.25	-101.25	-108.75	-78.75
2343	213.75	198.75	67.5	-7.5	-101.25	-101.25	-108.75	-82.5
2344	217.5	153.75	71.25	3.75	-93.75	-97.5	-105	-78.75
2345	221.25	82.5	78.75	11.25	-90	-97.5	-101.25	-75
2346	258.75	3.75	86.25	11.25	-86.25	-97.5	-101.25	-67.5
