samplenr	I	II	V1	V2	V3	V4	V5	V6	measurement
0	131.25	-97.5	-78.75	-101.25	-157.5	-161.25	-131.25	-67.5
1	82.5	-116.25	-67.5	-97.5	-153.75	-153.75	-123.75	-63.75
2	22.5	-127.5	-52.5	-97.5	-153.75	-153.75	-123.75	-67.5
3	52.5	-116.25	-63.75	-108.75	-168.75	-165	-135	-75
4	56.25	-116.25	-71.25	-112.5	-172.5	-168.75	-135	-75
5	18.75	-116.25	-71.25	-108.75	-168.75	-168.75	-138.75	-75
6	-11.25	-105	-63.75	-112.5	-168.75	-165	-131.25	-75
7	-18.75	-78.75	-67.5	-120	-172.5	-165	-135	-75
8	-15	-67.5	-67.5	-123.75	-180	-168.75	-138.75	-78.75
9	-7.5	-71.25	-75	-131.25	-183.75	-172.5	-146.25	-90
10	7.5	-63.75	-75	-127.5	-183.75	-172.5	-146.25	-90
11	82.5	-48.75	-86.25	-135	-191.25	-187.5	-161.25	-101.25
12	138.75	-56.25	-78.75	-131.25	-187.5	-195	-161.25	-101.25
13	105	-90	-41.25	-101.25	-161.25	-165	-131.25	-75
14	41.25	-123.75	-26.25	-90	-150	-153.75	-120	-63.75
15	7.5	-142.5	-37.5	-108.75	-168.75	-172.5	-135	-78.75
16	3.75	-161.25	-37.5	-105	-172.5	-172.5	-135	-82.5
17	-22.5	-183.75	-30	-101.25	-165	-165	-131.25	-78.75
18	-48.75	-168.75	-26.25	-97.5	-161.25	-157.5	-127.5	-75
19	-56.25	-142.5	-37.5	-108.75	-168.75	-168.75	-138.75	-86.25
20	-56.25	-161.25	-56.25	-123.75	-183.75	-183.75	-153.75	-101.25
21	-52.5	-180	-60	-131.25	-191.25	-195	-165	-105
22	-15	-150	-67.5	-138.75	-202.5	-202.5	-176.25	-112.5
23	56.25	-131.25	-82.5	-157.5	-217.5	-221.25	-195	-127.5
24	82.5	-161.25	-97.5	-168.75	-232.5	-240	-206.25	-142.5
25	30	-187.5	-90	-168.75	-236.25	-243.75	-210	-146.25
26	-7.5	-172.5	-78.75	-165	-232.5	-240	-206.25	-150
27	7.5	-135	-82.5	-165	-232.5	-240	-206.25	-150
28	11.25	-120	-93.75	-176.25	-243.75	-247.5	-213.75	-153.75
29	-18.75	-138.75	-90	-172.5	-240	-243.75	-210	-150
30	-45	-146.25	-71.25	-153.75	-221.25	-225	-195	-131.25
31	-26.25	-120	-48.75	-135	-195	-195	-165	-105
32	0	-127.5	-45	-123.75	-183.75	-183.75	-157.5	-93.75
33	3.75	-157.5	-67.5	-146.25	-206.25	-202.5	-180	-116.25
34	-15	-180	-75	-153.75	-213.75	-213.75	-191.25	-123.75
35	18.75	-202.5	-82.5	-157.5	-225	-225	-195	-131.25
36	45	-228.75	-101.25	-172.5	-243.75	-243.75	-210	-146.25
37	3.75	-247.5	-101.25	-180	-247.5	-255	-217.5	-153.75
38	-18.75	-240	-82.5	-168.75	-240	-247.5	-213.75	-150
39	33.75	-172.5	-56.25	-142.5	-217.5	-221.25	-187.5	-123.75
40	63.75	-108.75	-48.75	-135	-206.25	-206.25	-176.25	-116.25
41	18.75	-97.5	-48.75	-138.75	-206.25	-206.25	-176.25	-116.25
42	-67.5	-116.25	-52.5	-142.5	-206.25	-202.5	-168.75	-112.5
43	-101.25	-135	-71.25	-142.5	-206.25	-202.5	-172.5	-120
44	-60	-120	-71.25	-146.25	-206.25	-202.5	-180	-123.75
45	-15	-131.25	-63.75	-138.75	-202.5	-198.75	-176.25	-120
46	0	-183.75	-41.25	-112.5	-187.5	-187.5	-165	-108.75
47	45	-232.5	-22.5	-93.75	-187.5	-202.5	-183.75	-127.5
48	78.75	-270	11.25	-67.5	-202.5	-240	-225	-168.75
49	33.75	-303.75	82.5	-11.25	-206.25	-270	-255	-202.5
50	-7.5	-333.75	165	63.75	-191.25	-288.75	-285	-236.25
51	22.5	-326.25	232.5	123.75	-191.25	-315	-318.75	-270
52	67.5	-296.25	307.5	195	-165	-311.25	-318.75	-270
53	60	-273.75	382.5	288.75	-105	-277.5	-296.25	-247.5
54	33.75	-217.5	435	386.25	-37.5	-228.75	-258.75	-221.25
55	45	-123.75	476.25	465	33.75	-172.5	-210	-176.25
56	127.5	-22.5	502.5	536.25	108.75	-97.5	-142.5	-108.75
57	202.5	60	506.25	585	168.75	-30	-78.75	-52.5
58	251.25	131.25	513.75	648.75	240	45	-3.75	11.25
59	345	202.5	498.75	716.25	337.5	153.75	101.25	112.5
60	420	273.75	435	708.75	420	266.25	225	225
61	412.5	363.75	345	645	502.5	405	375	363.75
62	431.25	487.5	217.5	570	603.75	573.75	547.5	517.5
63	483.75	637.5	112.5	517.5	723.75	753.75	727.5	678.75
64	521.25	836.25	48.75	495	858.75	948.75	926.25	855
65	510	1068.75	-78.75	363.75	937.5	1132.5	1136.25	1057.5
66	483.75	1353.75	-311.25	71.25	926.25	1282.5	1338.75	1271.25
67	495	1575	-577.5	-273.75	885	1406.25	1518.75	1458.75
68	525	1653.75	-825	-585	851.25	1522.5	1668.75	1601.25
69	517.5	1698.75	-1008.75	-783.75	877.5	1661.25	1815	1725
70	476.25	1725	-1087.5	-862.5	952.5	1796.25	1931.25	1792.5
71	450	1676.25	-1102.5	-892.5	1016.25	1878.75	1980	1781.25
72	431.25	1556.25	-1170	-960	1020	1882.5	1957.5	1728.75
73	326.25	1380	-1248.75	-1046.25	945	1792.5	1856.25	1627.5
74	195	1166.25	-1233.75	-1065	802.5	1571.25	1620	1413.75
75	105	926.25	-1147.5	-1050	588.75	1233.75	1282.5	1117.5
76	37.5	671.25	-1095	-1110	277.5	832.5	918.75	832.5
77	-37.5	446.25	-1083.75	-1230	-116.25	382.5	532.5	551.25
78	-146.25	292.5	-1038.75	-1308.75	-446.25	0	206.25	311.25
79	-210	191.25	-967.5	-1286.25	-596.25	-210	-3.75	131.25
80	-183.75	116.25	-896.25	-1166.25	-570	-258.75	-101.25	18.75
81	-127.5	63.75	-832.5	-1016.25	-483.75	-243.75	-142.5	-48.75
82	-93.75	45	-761.25	-873.75	-405	-213.75	-135	-63.75
83	-3.75	67.5	-690	-765	-356.25	-180	-112.5	-48.75
84	67.5	45	-615	-675	-330	-168.75	-97.5	-33.75
85	3.75	-52.5	-525	-566.25	-285	-142.5	-78.75	-26.25
86	-41.25	-82.5	-431.25	-438.75	-213.75	-93.75	-41.25	0
87	-11.25	-37.5	-352.5	-322.5	-138.75	-45	0	33.75
88	15	-7.5	-292.5	-240	-86.25	-15	22.5	52.5
89	22.5	22.5	-240	-187.5	-67.5	-11.25	18.75	41.25
90	-15	33.75	-195	-146.25	-52.5	-15	7.5	26.25
91	-52.5	22.5	-150	-112.5	-45	-7.5	3.75	18.75
92	0	48.75	-120	-97.5	-52.5	-15	-7.5	11.25
93	56.25	78.75	-101.25	-82.5	-48.75	-18.75	-11.25	7.5
94	78.75	75	-82.5	-52.5	-26.25	-15	-11.25	11.25
95	135	18.75	-71.25	-33.75	-26.25	-30	-26.25	3.75
96	172.5	-56.25	-67.5	-33.75	-41.25	-48.75	-37.5	-7.5
97	105	-120	-41.25	-18.75	-41.25	-52.5	-37.5	-7.5
98	41.25	-165	-48.75	-33.75	-67.5	-75	-60	-33.75
99	56.25	-138.75	-37.5	-30	-67.5	-86.25	-71.25	-41.25
100	48.75	-112.5	-22.5	-22.5	-63.75	-82.5	-71.25	-41.25
101	22.5	-112.5	-26.25	-26.25	-71.25	-86.25	-75	-41.25
102	11.25	-90	-18.75	-18.75	-67.5	-75	-67.5	-33.75
103	-11.25	-56.25	-18.75	-11.25	-60	-67.5	-67.5	-41.25
104	3.75	-18.75	-22.5	0	-56.25	-75	-78.75	-48.75
105	56.25	3.75	-33.75	-18.75	-71.25	-97.5	-97.5	-63.75
106	82.5	0	-45	-33.75	-90	-112.5	-112.5	-78.75
107	112.5	-45	-45	-30	-97.5	-116.25	-112.5	-75
108	142.5	-120	-37.5	-22.5	-86.25	-108.75	-101.25	-63.75
109	108.75	-165	-11.25	-3.75	-71.25	-93.75	-86.25	-48.75
110	78.75	-150	11.25	15	-67.5	-82.5	-67.5	-30
111	71.25	-131.25	11.25	15	-67.5	-82.5	-75	-30
112	71.25	-127.5	-11.25	7.5	-75	-101.25	-93.75	-52.5
113	56.25	-123.75	-18.75	22.5	-60	-93.75	-86.25	-48.75
114	11.25	-123.75	0	41.25	-41.25	-75	-71.25	-41.25
115	0	-90	11.25	41.25	-45	-75	-75	-45
116	56.25	-30	11.25	33.75	-48.75	-75	-82.5	-48.75
117	112.5	0	-11.25	18.75	-56.25	-82.5	-93.75	-60
118	120	18.75	-22.5	18.75	-63.75	-97.5	-101.25	-63.75
119	135	-15	-45	-3.75	-90	-123.75	-123.75	-78.75
120	153.75	-82.5	-56.25	-30	-112.5	-138.75	-135	-86.25
121	112.5	-123.75	-33.75	-33.75	-112.5	-127.5	-120	-71.25
122	71.25	-142.5	-15	3.75	-82.5	-105	-101.25	-56.25
123	105	-138.75	-3.75	22.5	-67.5	-90	-82.5	-45
124	120	-127.5	7.5	22.5	-67.5	-78.75	-67.5	-26.25
125	86.25	-131.25	11.25	37.5	-48.75	-67.5	-56.25	-18.75
126	56.25	-105	15	63.75	-22.5	-48.75	-45	-15
127	37.5	-45	15	67.5	-22.5	-48.75	-48.75	-18.75
128	63.75	18.75	11.25	71.25	-18.75	-56.25	-60	-26.25
129	93.75	18.75	0	60	-26.25	-60	-63.75	-26.25
130	90	-18.75	7.5	67.5	-22.5	-52.5	-48.75	-7.5
131	127.5	-45	-3.75	67.5	-22.5	-52.5	-52.5	-11.25
132	161.25	-78.75	-11.25	60	-30	-63.75	-63.75	-26.25
133	131.25	-105	7.5	78.75	-15	-48.75	-48.75	-15
134	101.25	-97.5	22.5	93.75	-3.75	-37.5	-33.75	0
135	105	-86.25	18.75	82.5	-15	-45	-41.25	-7.5
136	135	-67.5	15	78.75	-18.75	-52.5	-45	-3.75
137	135	-45	15	78.75	-15	-48.75	-45	-7.5
138	93.75	-18.75	22.5	78.75	-22.5	-48.75	-48.75	-11.25
139	67.5	3.75	22.5	86.25	-11.25	-37.5	-33.75	7.5
140	82.5	22.5	15	90	0	-22.5	-26.25	11.25
141	116.25	33.75	3.75	93.75	7.5	-26.25	-33.75	0
142	135	3.75	-11.25	90	-3.75	-41.25	-52.5	-18.75
143	168.75	-33.75	-18.75	82.5	-11.25	-52.5	-63.75	-26.25
144	198.75	-75	-7.5	93.75	-3.75	-41.25	-48.75	-11.25
145	161.25	-105	3.75	105	7.5	-30	-30	3.75
146	120	-82.5	7.5	105	7.5	-30	-30	3.75
147	123.75	-56.25	0	101.25	3.75	-33.75	-37.5	-7.5
148	142.5	-48.75	0	112.5	15	-22.5	-26.25	0
149	131.25	-33.75	11.25	116.25	22.5	-7.5	-11.25	15
150	120	7.5	15	127.5	30	0	-3.75	22.5
151	123.75	33.75	15	138.75	45	11.25	3.75	30
152	123.75	11.25	11.25	135	41.25	11.25	3.75	30
153	120	-7.5	11.25	127.5	22.5	0	-3.75	22.5
154	142.5	7.5	3.75	131.25	30	0	-7.5	26.25
155	206.25	7.5	-11.25	131.25	30	-7.5	-15	22.5
156	255	11.25	-11.25	120	22.5	-15	-22.5	22.5
157	221.25	0	-7.5	108.75	11.25	-18.75	-18.75	22.5
158	198.75	-22.5	0	135	33.75	-3.75	-3.75	30
159	243.75	-15	15	161.25	60	18.75	18.75	48.75
160	251.25	-18.75	30	168.75	75	45	41.25	63.75
161	202.5	-26.25	22.5	168.75	75	41.25	37.5	60
162	142.5	18.75	22.5	168.75	75	41.25	37.5	56.25
163	112.5	63.75	22.5	172.5	82.5	48.75	45	60
164	142.5	101.25	22.5	191.25	93.75	63.75	56.25	75
165	195	116.25	33.75	206.25	108.75	71.25	67.5	90
166	191.25	56.25	22.5	191.25	93.75	56.25	52.5	78.75
167	228.75	11.25	11.25	165	63.75	37.5	33.75	67.5
168	273.75	-7.5	15	161.25	60	33.75	37.5	67.5
169	232.5	-22.5	22.5	183.75	86.25	45	48.75	75
170	206.25	-18.75	37.5	202.5	105	56.25	56.25	82.5
171	225	0	37.5	206.25	97.5	60	56.25	86.25
172	228.75	11.25	26.25	206.25	97.5	60	60	86.25
173	202.5	11.25	30	210	97.5	56.25	63.75	86.25
174	180	30	48.75	221.25	112.5	75	78.75	101.25
175	168.75	67.5	52.5	228.75	123.75	90	93.75	112.5
176	191.25	90	41.25	221.25	116.25	82.5	82.5	101.25
177	228.75	86.25	22.5	210	105	75	71.25	90
178	225	52.5	18.75	210	105	71.25	67.5	90
179	262.5	41.25	11.25	198.75	86.25	48.75	48.75	78.75
180	307.5	75	0	180	67.5	33.75	41.25	71.25
181	285	101.25	11.25	187.5	71.25	41.25	56.25	82.5
182	266.25	93.75	26.25	202.5	82.5	52.5	63.75	93.75
183	273.75	75	26.25	202.5	78.75	48.75	60	86.25
184	266.25	26.25	15	187.5	63.75	37.5	45	67.5
185	247.5	-15	30	187.5	60	45	56.25	78.75
186	232.5	7.5	52.5	195	67.5	60	71.25	90
187	225	90	56.25	221.25	97.5	75	78.75	101.25
188	232.5	142.5	37.5	210	93.75	67.5	67.5	93.75
189	243.75	138.75	26.25	191.25	71.25	52.5	52.5	86.25
190	255	120	22.5	176.25	56.25	41.25	45	78.75
191	318.75	101.25	15	165	37.5	33.75	45	78.75
192	375	71.25	26.25	180	45	30	45	86.25
193	326.25	22.5	33.75	187.5	52.5	26.25	37.5	78.75
194	251.25	-11.25	41.25	176.25	41.25	18.75	33.75	71.25
195	247.5	3.75	52.5	176.25	33.75	22.5	41.25	78.75
196	247.5	3.75	60	183.75	41.25	26.25	48.75	86.25
197	210	-26.25	60	183.75	41.25	22.5	41.25	78.75
198	165	-15	67.5	180	41.25	26.25	45	82.5
199	157.5	37.5	75	183.75	48.75	37.5	52.5	86.25
200	191.25	60	63.75	172.5	37.5	26.25	37.5	75
201	225	45	60	161.25	26.25	7.5	18.75	63.75
202	240	60	67.5	165	22.5	3.75	11.25	60
203	285	75	41.25	138.75	-3.75	-26.25	-15	33.75
204	315	37.5	26.25	112.5	-26.25	-52.5	-37.5	15
205	255	-3.75	37.5	116.25	-30	-52.5	-33.75	18.75
206	202.5	-3.75	52.5	123.75	-22.5	-48.75	-26.25	26.25
207	225	30	60	123.75	-22.5	-52.5	-30	18.75
208	228.75	56.25	56.25	112.5	-33.75	-60	-45	3.75
209	183.75	52.5	48.75	90	-45	-71.25	-56.25	-11.25
210	135	30	63.75	97.5	-30	-52.5	-41.25	0
211	108.75	7.5	71.25	97.5	-33.75	-48.75	-33.75	3.75
212	116.25	3.75	71.25	93.75	-41.25	-56.25	-41.25	0
213	127.5	3.75	52.5	90	-37.5	-60	-48.75	-7.5
214	146.25	0	48.75	75	-48.75	-75	-60	-18.75
215	198.75	-18.75	41.25	56.25	-71.25	-97.5	-82.5	-33.75
216	225	-56.25	26.25	33.75	-93.75	-123.75	-105	-52.5
217	191.25	-75	33.75	33.75	-93.75	-120	-97.5	-45
218	142.5	-67.5	45	26.25	-93.75	-116.25	-90	-37.5
219	131.25	-60	45	26.25	-93.75	-116.25	-90	-41.25
220	161.25	-45	45	33.75	-90	-116.25	-90	-41.25
221	131.25	-41.25	45	18.75	-101.25	-123.75	-93.75	-48.75
222	67.5	-37.5	45	15	-97.5	-116.25	-90	-45
223	60	-7.5	45	22.5	-86.25	-101.25	-82.5	-37.5
224	90	0	41.25	15	-86.25	-105	-93.75	-48.75
225	97.5	-48.75	33.75	11.25	-93.75	-116.25	-105	-56.25
226	105	-71.25	30	7.5	-93.75	-116.25	-105	-52.5
227	146.25	-75	30	-3.75	-101.25	-123.75	-108.75	-56.25
228	191.25	-123.75	18.75	-18.75	-120	-146.25	-127.5	-71.25
229	153.75	-165	18.75	-26.25	-127.5	-157.5	-131.25	-82.5
230	112.5	-153.75	30	-26.25	-127.5	-150	-123.75	-75
231	123.75	-123.75	37.5	-18.75	-120	-142.5	-116.25	-67.5
232	116.25	-112.5	26.25	-33.75	-131.25	-153.75	-127.5	-78.75
233	82.5	-97.5	7.5	-48.75	-150	-168.75	-142.5	-93.75
234	48.75	-71.25	7.5	-60	-153.75	-168.75	-142.5	-101.25
235	22.5	-60	11.25	-63.75	-153.75	-165	-138.75	-97.5
236	26.25	-78.75	3.75	-71.25	-161.25	-168.75	-146.25	-101.25
237	52.5	-93.75	15	-56.25	-146.25	-157.5	-138.75	-90
238	78.75	-105	26.25	-41.25	-123.75	-142.5	-123.75	-75
239	116.25	-165	7.5	-67.5	-150	-168.75	-146.25	-90
240	146.25	-206.25	-11.25	-90	-172.5	-191.25	-165	-112.5
241	123.75	-180	-7.5	-86.25	-172.5	-195	-165	-112.5
242	78.75	-150	7.5	-75	-161.25	-180	-150	-97.5
243	56.25	-153.75	3.75	-75	-165	-183.75	-153.75	-101.25
244	67.5	-131.25	-3.75	-82.5	-172.5	-191.25	-165	-112.5
245	63.75	-90	0	-82.5	-172.5	-187.5	-161.25	-108.75
246	11.25	-82.5	-3.75	-86.25	-168.75	-183.75	-157.5	-112.5
247	0	-63.75	-15	-93.75	-172.5	-183.75	-161.25	-116.25
248	26.25	-41.25	-15	-93.75	-168.75	-180	-161.25	-112.5
249	18.75	-82.5	-18.75	-93.75	-168.75	-183.75	-165	-112.5
250	3.75	-146.25	-18.75	-93.75	-172.5	-187.5	-165	-108.75
251	75	-150	-30	-101.25	-183.75	-198.75	-172.5	-112.5
252	168.75	-131.25	-33.75	-101.25	-183.75	-202.5	-176.25	-116.25
253	142.5	-127.5	-18.75	-93.75	-172.5	-195	-168.75	-108.75
254	75	-138.75	-11.25	-93.75	-172.5	-187.5	-157.5	-101.25
255	78.75	-150	-15	-93.75	-176.25	-187.5	-157.5	-101.25
256	82.5	-153.75	-18.75	-101.25	-183.75	-195	-165	-108.75
257	56.25	-153.75	-11.25	-105	-176.25	-187.5	-157.5	-105
258	30	-157.5	-3.75	-93.75	-165	-172.5	-142.5	-93.75
259	22.5	-131.25	-3.75	-90	-153.75	-165	-135	-86.25
260	48.75	-78.75	-3.75	-78.75	-150	-161.25	-138.75	-90
261	63.75	-60	-22.5	-90	-157.5	-172.5	-157.5	-105
262	78.75	-52.5	-18.75	-90	-153.75	-172.5	-153.75	-101.25
263	116.25	-82.5	-22.5	-97.5	-168.75	-180	-157.5	-101.25
264	142.5	-138.75	-33.75	-116.25	-191.25	-198.75	-176.25	-112.5
265	108.75	-161.25	-30	-105	-176.25	-191.25	-165	-108.75
266	63.75	-165	-26.25	-93.75	-161.25	-180	-153.75	-101.25
267	60	-165	-15	-82.5	-153.75	-172.5	-146.25	-93.75
268	78.75	-150	-18.75	-90	-157.5	-176.25	-153.75	-101.25
269	71.25	-131.25	-26.25	-97.5	-165	-183.75	-161.25	-116.25
270	26.25	-116.25	-26.25	-105	-180	-187.5	-168.75	-120
271	11.25	-63.75	-18.75	-101.25	-176.25	-180	-157.5	-108.75
272	48.75	-3.75	-30	-86.25	-153.75	-168.75	-153.75	-101.25
273	86.25	15	-33.75	-93.75	-157.5	-176.25	-165	-112.5
274	86.25	-7.5	-37.5	-108.75	-172.5	-191.25	-176.25	-120
275	97.5	-60	-41.25	-105	-168.75	-191.25	-176.25	-116.25
276	127.5	-116.25	-48.75	-108.75	-172.5	-195	-176.25	-120
277	101.25	-165	-30	-97.5	-165	-183.75	-161.25	-108.75
278	67.5	-187.5	-7.5	-71.25	-142.5	-161.25	-138.75	-93.75
279	86.25	-191.25	3.75	-63.75	-127.5	-150	-127.5	-82.5
280	108.75	-180	3.75	-63.75	-123.75	-146.25	-123.75	-82.5
281	101.25	-135	0	-63.75	-127.5	-146.25	-123.75	-78.75
282	37.5	-105	3.75	-63.75	-131.25	-142.5	-123.75	-75
283	7.5	-86.25	7.5	-56.25	-120	-131.25	-112.5	-71.25
284	33.75	-78.75	0	-60	-120	-138.75	-123.75	-86.25
285	52.5	-90	-11.25	-75	-135	-150	-135	-97.5
286	63.75	-90	-18.75	-86.25	-138.75	-157.5	-142.5	-97.5
287	127.5	-60	-41.25	-101.25	-153.75	-172.5	-153.75	-105
288	180	-67.5	-52.5	-108.75	-165	-187.5	-165	-112.5
289	131.25	-93.75	-41.25	-101.25	-161.25	-180	-153.75	-97.5
290	97.5	-71.25	-26.25	-86.25	-142.5	-161.25	-135	-82.5
291	105	-78.75	-11.25	-78.75	-135	-153.75	-127.5	-82.5
292	82.5	-135	-3.75	-75	-135	-153.75	-131.25	-90
293	45	-172.5	-3.75	-78.75	-135	-153.75	-135	-93.75
294	30	-165	3.75	-63.75	-120	-142.5	-123.75	-82.5
295	41.25	-127.5	15	-48.75	-105	-123.75	-108.75	-67.5
296	60	-86.25	11.25	-56.25	-112.5	-131.25	-120	-75
297	86.25	-52.5	-15	-71.25	-123.75	-150	-138.75	-93.75
298	93.75	-48.75	-30	-86.25	-142.5	-165	-150	-101.25
299	127.5	-75	-41.25	-101.25	-157.5	-176.25	-157.5	-101.25
300	168.75	-112.5	-48.75	-105	-157.5	-180	-153.75	-101.25
301	120	-157.5	-33.75	-90	-146.25	-168.75	-138.75	-90
302	86.25	-146.25	-18.75	-78.75	-131.25	-153.75	-123.75	-78.75
303	108.75	-90	-11.25	-71.25	-120	-142.5	-123.75	-78.75
304	112.5	-82.5	-15	-78.75	-131.25	-157.5	-142.5	-93.75
305	101.25	-78.75	-18.75	-86.25	-142.5	-165	-146.25	-97.5
306	52.5	-63.75	-18.75	-86.25	-135	-150	-131.25	-86.25
307	15	-52.5	-18.75	-90	-142.5	-153.75	-135	-93.75
308	33.75	-45	-26.25	-93.75	-142.5	-153.75	-142.5	-101.25
309	71.25	-71.25	-26.25	-75	-123.75	-135	-127.5	-82.5
310	90	-112.5	-22.5	-82.5	-131.25	-138.75	-127.5	-78.75
311	123.75	-135	-37.5	-97.5	-150	-157.5	-142.5	-90
312	165	-150	-41.25	-97.5	-146.25	-165	-146.25	-90
313	142.5	-165	-33.75	-97.5	-150	-172.5	-153.75	-97.5
314	86.25	-168.75	-26.25	-101.25	-153.75	-168.75	-150	-97.5
315	82.5	-142.5	-18.75	-93.75	-146.25	-157.5	-135	-86.25
316	108.75	-101.25	-22.5	-86.25	-138.75	-153.75	-127.5	-82.5
317	112.5	-78.75	-26.25	-93.75	-142.5	-157.5	-135	-82.5
318	67.5	-82.5	-18.75	-90	-142.5	-157.5	-135	-86.25
319	30	-75	-18.75	-97.5	-150	-168.75	-146.25	-97.5
320	37.5	-52.5	-33.75	-112.5	-165	-176.25	-157.5	-105
321	67.5	-37.5	-56.25	-123.75	-172.5	-183.75	-168.75	-116.25
322	90	-56.25	-60	-127.5	-168.75	-187.5	-172.5	-123.75
323	135	-82.5	-63.75	-131.25	-176.25	-198.75	-187.5	-131.25
324	191.25	-97.5	-67.5	-138.75	-187.5	-213.75	-195	-135
325	176.25	-116.25	-48.75	-127.5	-172.5	-198.75	-176.25	-116.25
326	105	-116.25	-30	-105	-157.5	-183.75	-161.25	-105
327	60	-120	-33.75	-108.75	-161.25	-183.75	-165	-108.75
328	78.75	-142.5	-37.5	-116.25	-168.75	-183.75	-161.25	-105
329	93.75	-146.25	-11.25	-97.5	-146.25	-165	-138.75	-90
330	63.75	-108.75	-3.75	-86.25	-138.75	-153.75	-131.25	-82.5
331	52.5	-45	-18.75	-93.75	-142.5	-157.5	-138.75	-86.25
332	41.25	-41.25	-45	-120	-165	-180	-161.25	-108.75
333	41.25	-82.5	-52.5	-131.25	-176.25	-195	-176.25	-123.75
334	63.75	-112.5	-52.5	-135	-176.25	-195	-180	-123.75
335	116.25	-108.75	-56.25	-138.75	-183.75	-202.5	-187.5	-127.5
336	183.75	-123.75	-67.5	-146.25	-195	-213.75	-191.25	-131.25
337	183.75	-157.5	-60	-142.5	-187.5	-206.25	-180	-123.75
338	123.75	-168.75	-52.5	-138.75	-183.75	-198.75	-168.75	-116.25
339	97.5	-161.25	-45	-135	-180	-187.5	-157.5	-101.25
340	90	-161.25	-33.75	-123.75	-168.75	-180	-150	-101.25
341	97.5	-142.5	-37.5	-127.5	-172.5	-183.75	-157.5	-108.75
342	97.5	-105	-30	-123.75	-168.75	-180	-153.75	-105
343	52.5	-101.25	-30	-123.75	-168.75	-176.25	-153.75	-105
344	48.75	-90	-45	-138.75	-180	-187.5	-165	-112.5
345	56.25	-86.25	-56.25	-150	-191.25	-202.5	-183.75	-127.5
346	52.5	-93.75	-63.75	-153.75	-198.75	-213.75	-198.75	-142.5
347	108.75	-93.75	-78.75	-165	-210	-225	-206.25	-150
348	168.75	-101.25	-93.75	-176.25	-217.5	-240	-217.5	-153.75
349	131.25	-120	-86.25	-183.75	-228.75	-240	-213.75	-150
350	63.75	-127.5	-56.25	-183.75	-232.5	-225	-191.25	-127.5
351	86.25	-97.5	-41.25	-142.5	-191.25	-198.75	-165	-108.75
352	127.5	-67.5	-45	-135	-183.75	-198.75	-172.5	-116.25
353	101.25	-75	-52.5	-153.75	-198.75	-213.75	-183.75	-123.75
354	60	-86.25	-33.75	-131.25	-180	-195	-168.75	-105
355	52.5	-86.25	-30	-120	-168.75	-180	-153.75	-93.75
356	52.5	-90	-37.5	-123.75	-168.75	-176.25	-150	-90
357	48.75	-116.25	-41.25	-131.25	-172.5	-180	-157.5	-97.5
358	71.25	-135	-45	-135	-176.25	-187.5	-165	-105
359	105	-161.25	-67.5	-153.75	-195	-213.75	-187.5	-127.5
360	131.25	-202.5	-82.5	-172.5	-217.5	-236.25	-210	-142.5
361	127.5	-198.75	-67.5	-157.5	-198.75	-221.25	-191.25	-131.25
362	101.25	-168.75	-48.75	-142.5	-187.5	-202.5	-176.25	-116.25
363	105	-146.25	-56.25	-157.5	-206.25	-217.5	-183.75	-120
364	123.75	-131.25	-63.75	-161.25	-210	-221.25	-187.5	-131.25
365	108.75	-135	-45	-142.5	-191.25	-210	-180	-127.5
366	60	-142.5	-33.75	-135	-183.75	-198.75	-172.5	-116.25
367	22.5	-116.25	-37.5	-150	-198.75	-198.75	-168.75	-108.75
368	37.5	-45	-48.75	-161.25	-206.25	-202.5	-172.5	-112.5
369	67.5	-18.75	-75	-172.5	-213.75	-225	-195	-138.75
370	63.75	-60	-97.5	-195	-232.5	-247.5	-217.5	-153.75
371	93.75	-112.5	-90	-187.5	-232.5	-243.75	-217.5	-150
372	153.75	-153.75	-86.25	-176.25	-225	-240	-213.75	-146.25
373	123.75	-187.5	-75	-168.75	-217.5	-232.5	-206.25	-135
374	71.25	-187.5	-60	-157.5	-206.25	-221.25	-191.25	-127.5
375	71.25	-165	-67.5	-168.75	-210	-228.75	-202.5	-142.5
376	71.25	-176.25	-67.5	-172.5	-221.25	-236.25	-210	-153.75
377	67.5	-176.25	-56.25	-161.25	-210	-228.75	-198.75	-142.5
378	78.75	-135	-45	-146.25	-195	-206.25	-180	-123.75
379	67.5	-116.25	-48.75	-146.25	-187.5	-198.75	-172.5	-116.25
380	56.25	-112.5	-56.25	-153.75	-195	-202.5	-180	-123.75
381	63.75	-116.25	-60	-161.25	-198.75	-202.5	-180	-123.75
382	63.75	-138.75	-71.25	-161.25	-198.75	-206.25	-183.75	-127.5
383	123.75	-123.75	-78.75	-168.75	-213.75	-221.25	-195	-135
384	198.75	-112.5	-86.25	-187.5	-232.5	-240	-206.25	-142.5
385	180	-146.25	-78.75	-176.25	-221.25	-236.25	-198.75	-135
386	112.5	-157.5	-60	-153.75	-198.75	-213.75	-183.75	-123.75
387	90	-138.75	-52.5	-153.75	-198.75	-210	-183.75	-123.75
388	101.25	-135	-56.25	-161.25	-213.75	-225	-187.5	-127.5
389	105	-123.75	-60	-161.25	-210	-221.25	-183.75	-127.5
390	86.25	-105	-48.75	-150	-195	-210	-180	-120
391	60	-82.5	-30	-131.25	-176.25	-191.25	-161.25	-105
392	60	-48.75	-33.75	-131.25	-176.25	-187.5	-161.25	-108.75
393	75	-41.25	-37.5	-142.5	-187.5	-198.75	-176.25	-123.75
394	82.5	-63.75	-30	-138.75	-187.5	-202.5	-180	-120
395	127.5	-75	-33.75	-142.5	-191.25	-210	-183.75	-120
396	172.5	-97.5	-56.25	-176.25	-221.25	-240	-210	-142.5
397	142.5	-112.5	-60	-172.5	-225	-247.5	-217.5	-153.75
398	86.25	-116.25	-33.75	-142.5	-195	-217.5	-187.5	-131.25
399	52.5	-131.25	-7.5	-135	-187.5	-206.25	-176.25	-120
400	45	-116.25	0	-135	-191.25	-210	-180	-131.25
401	60	-78.75	3.75	-120	-180	-195	-168.75	-116.25
402	60	-75	18.75	-93.75	-150	-165	-135	-82.5
403	52.5	-71.25	26.25	-86.25	-135	-150	-123.75	-71.25
404	63.75	-33.75	30	-90	-138.75	-153.75	-135	-82.5
405	82.5	-18.75	22.5	-101.25	-153.75	-172.5	-150	-97.5
406	78.75	-33.75	11.25	-105	-157.5	-176.25	-153.75	-97.5
407	146.25	-15	11.25	-101.25	-157.5	-176.25	-150	-86.25
408	198.75	-15	7.5	-116.25	-165	-187.5	-157.5	-93.75
409	153.75	-52.5	0	-120	-172.5	-195	-165	-101.25
410	97.5	-78.75	3.75	-108.75	-161.25	-187.5	-157.5	-97.5
411	101.25	-78.75	0	-108.75	-161.25	-180	-153.75	-93.75
412	142.5	-60	-22.5	-120	-161.25	-176.25	-153.75	-93.75
413	183.75	-15	-45	-131.25	-161.25	-180	-157.5	-97.5
414	153.75	3.75	-56.25	-131.25	-165	-176.25	-146.25	-86.25
415	90	-22.5	-45	-120	-146.25	-150	-123.75	-67.5
416	90	-30	-41.25	-112.5	-127.5	-127.5	-105	-52.5
417	123.75	-22.5	-63.75	-135	-165	-157.5	-123.75	-63.75
418	120	-45	-82.5	-168.75	-202.5	-183.75	-146.25	-86.25
419	153.75	-60	-105	-176.25	-198.75	-195	-165	-108.75
420	195	-93.75	-131.25	-187.5	-210	-221.25	-187.5	-123.75
421	172.5	-123.75	-127.5	-195	-228.75	-240	-195	-123.75
422	165	-90	-90	-172.5	-206.25	-210	-165	-97.5
423	165	-97.5	-71.25	-157.5	-195	-198.75	-153.75	-86.25
424	153.75	-116.25	-78.75	-165	-202.5	-210	-168.75	-105
425	146.25	-101.25	-90	-172.5	-206.25	-217.5	-183.75	-120
426	123.75	-93.75	-67.5	-157.5	-191.25	-202.5	-168.75	-105
427	71.25	-112.5	-56.25	-150	-180	-191.25	-157.5	-97.5
428	71.25	-105	-67.5	-150	-180	-191.25	-157.5	-101.25
429	108.75	-82.5	-67.5	-153.75	-187.5	-198.75	-168.75	-108.75
430	127.5	-60	-78.75	-165	-198.75	-210	-180	-112.5
431	176.25	-41.25	-93.75	-183.75	-213.75	-225	-191.25	-120
432	206.25	-82.5	-97.5	-191.25	-228.75	-240	-202.5	-131.25
433	168.75	-142.5	-90	-180	-221.25	-236.25	-198.75	-131.25
434	131.25	-142.5	-75	-172.5	-213.75	-228.75	-187.5	-127.5
435	112.5	-138.75	-56.25	-157.5	-202.5	-217.5	-180	-116.25
436	97.5	-157.5	-56.25	-165	-210	-228.75	-187.5	-123.75
437	82.5	-135	-75	-187.5	-236.25	-251.25	-210	-146.25
438	45	-105	-101.25	-206.25	-247.5	-262.5	-225	-161.25
439	15	-112.5	-105	-206.25	-243.75	-258.75	-225	-157.5
440	33.75	-112.5	-90	-198.75	-236.25	-251.25	-221.25	-153.75
441	93.75	-71.25	-86.25	-195	-232.5	-247.5	-213.75	-150
442	131.25	-63.75	-78.75	-183.75	-221.25	-232.5	-202.5	-135
443	153.75	-101.25	-75	-187.5	-221.25	-236.25	-202.5	-131.25
444	180	-142.5	-97.5	-206.25	-240	-262.5	-225	-150
445	168.75	-183.75	-90	-195	-236.25	-262.5	-221.25	-142.5
446	131.25	-198.75	-67.5	-183.75	-228.75	-251.25	-206.25	-131.25
447	105	-198.75	-67.5	-191.25	-240	-258.75	-213.75	-138.75
448	93.75	-202.5	-82.5	-202.5	-247.5	-270	-225	-150
449	93.75	-180	-86.25	-206.25	-247.5	-262.5	-221.25	-146.25
450	63.75	-153.75	-82.5	-202.5	-236.25	-251.25	-217.5	-150
451	26.25	-150	-67.5	-180	-217.5	-236.25	-210	-146.25
452	30	-142.5	-52.5	-180	-221.25	-236.25	-210	-146.25
453	82.5	-131.25	-67.5	-195	-232.5	-236.25	-206.25	-138.75
454	97.5	-120	-86.25	-202.5	-232.5	-240	-210	-146.25
455	116.25	-116.25	-105	-213.75	-251.25	-258.75	-232.5	-168.75
456	153.75	-146.25	-123.75	-236.25	-273.75	-281.25	-243.75	-180
457	127.5	-191.25	-120	-232.5	-266.25	-277.5	-232.5	-165
458	101.25	-191.25	-97.5	-213.75	-247.5	-262.5	-221.25	-153.75
459	123.75	-142.5	-90	-198.75	-240	-255	-213.75	-150
460	135	-105	-86.25	-202.5	-232.5	-247.5	-210	-146.25
461	97.5	-138.75	-75	-198.75	-236.25	-251.25	-217.5	-153.75
462	56.25	-187.5	-60	-176.25	-228.75	-255	-225	-161.25
463	33.75	-180	-30	-138.75	-217.5	-255	-228.75	-172.5
464	48.75	-168.75	30	-82.5	-202.5	-266.25	-255	-202.5
465	105	-191.25	97.5	-26.25	-206.25	-300	-303.75	-251.25
466	153.75	-228.75	168.75	33.75	-206.25	-333.75	-345	-288.75
467	213.75	-258.75	228.75	90	-202.5	-352.5	-367.5	-303.75
468	247.5	-296.25	277.5	150	-191.25	-367.5	-382.5	-315
469	217.5	-303.75	333.75	240	-135	-337.5	-356.25	-296.25
470	213.75	-236.25	393.75	341.25	-41.25	-258.75	-285	-232.5
471	217.5	-176.25	438.75	420	26.25	-195	-225	-176.25
472	240	-108.75	468.75	480	90	-127.5	-153.75	-112.5
473	315	11.25	502.5	555	176.25	-37.5	-75	-45
474	360	131.25	543.75	660	292.5	78.75	33.75	48.75
475	360	228.75	517.5	705	393.75	210	165	165
476	401.25	348.75	412.5	652.5	461.25	333.75	296.25	285
477	502.5	502.5	281.25	551.25	517.5	450	423.75	408.75
478	592.5	675	176.25	506.25	637.5	618.75	600	570
479	652.5	828.75	82.5	487.5	776.25	806.25	783.75	731.25
480	708.75	978.75	-15	408.75	862.5	963.75	960	892.5
481	690	1185	-180	210	896.25	1121.25	1158.75	1095
482	622.5	1402.5	-412.5	-101.25	873.75	1260	1357.5	1308.75
483	607.5	1552.5	-660	-438.75	825	1372.5	1515	1473.75
484	611.25	1646.25	-888.75	-705	817.5	1496.25	1665	1605
485	558.75	1665	-1042.5	-862.5	851.25	1627.5	1800	1702.5
486	468.75	1650	-1080	-926.25	915	1736.25	1886.25	1747.5
487	408.75	1638.75	-1087.5	-948.75	971.25	1803.75	1920	1736.25
488	371.25	1571.25	-1181.25	-1023.75	952.5	1781.25	1867.5	1661.25
489	311.25	1413.75	-1256.25	-1117.5	828.75	1616.25	1691.25	1496.25
490	228.75	1185	-1222.5	-1136.25	648.75	1338.75	1402.5	1241.25
491	198.75	926.25	-1151.25	-1136.25	412.5	990	1061.25	952.5
492	191.25	652.5	-1125	-1215	78.75	573.75	690	667.5
493	86.25	405	-1087.5	-1316.25	-288.75	146.25	322.5	390
494	-18.75	240	-997.5	-1338.75	-528.75	-146.25	67.5	187.5
495	-33.75	127.5	-918.75	-1260	-585	-270	-78.75	52.5
496	-15	45	-851.25	-1128.75	-532.5	-288.75	-146.25	-30
497	-33.75	7.5	-787.5	-986.25	-453.75	-270	-165	-75
498	-67.5	22.5	-712.5	-851.25	-382.5	-236.25	-157.5	-86.25
499	-67.5	56.25	-645	-761.25	-356.25	-217.5	-142.5	-82.5
500	-26.25	71.25	-577.5	-671.25	-326.25	-191.25	-120	-60
501	30	63.75	-498.75	-551.25	-262.5	-150	-93.75	-45
502	97.5	78.75	-412.5	-420	-183.75	-105	-56.25	-11.25
503	157.5	60	-333.75	-311.25	-112.5	-56.25	-18.75	22.5
504	217.5	3.75	-277.5	-247.5	-82.5	-45	-11.25	26.25
505	225	-33.75	-217.5	-187.5	-56.25	-33.75	0	30
506	187.5	-26.25	-153.75	-123.75	-18.75	-11.25	18.75	45
507	172.5	-26.25	-123.75	-101.25	-15	-15	11.25	37.5
508	165	-56.25	-108.75	-97.5	-26.25	-30	-3.75	22.5
509	150	-63.75	-90	-86.25	-33.75	-45	-22.5	3.75
510	112.5	-60	-63.75	-71.25	-33.75	-52.5	-37.5	-15
511	86.25	-37.5	-48.75	-56.25	-26.25	-56.25	-48.75	-30
512	93.75	-11.25	-56.25	-63.75	-45	-75	-67.5	-45
513	123.75	-3.75	-63.75	-75	-67.5	-97.5	-90	-60
514	161.25	18.75	-67.5	-78.75	-75	-112.5	-105	-75
515	198.75	7.5	-71.25	-82.5	-82.5	-123.75	-116.25	-86.25
516	232.5	-56.25	-75	-90	-105	-146.25	-135	-97.5
517	213.75	-97.5	-67.5	-97.5	-116.25	-150	-127.5	-86.25
518	172.5	-97.5	-45	-78.75	-101.25	-138.75	-116.25	-75
519	157.5	-90	-37.5	-67.5	-97.5	-146.25	-123.75	-90
520	146.25	-90	-37.5	-63.75	-97.5	-150	-131.25	-97.5
521	127.5	-93.75	-37.5	-60	-97.5	-150	-131.25	-93.75
522	86.25	-108.75	-33.75	-52.5	-93.75	-142.5	-127.5	-93.75
523	56.25	-105	-22.5	-41.25	-78.75	-131.25	-120	-86.25
524	90	-67.5	-15	-26.25	-71.25	-127.5	-116.25	-82.5
525	153.75	-33.75	-7.5	-18.75	-63.75	-120	-112.5	-78.75
526	168.75	-26.25	-22.5	-30	-71.25	-127.5	-123.75	-78.75
527	213.75	-7.5	-37.5	-41.25	-86.25	-142.5	-135	-86.25
528	300	-11.25	-37.5	-41.25	-90	-146.25	-135	-90
529	277.5	-71.25	-37.5	-37.5	-90	-146.25	-131.25	-90
530	180	-127.5	-30	-33.75	-90	-150	-131.25	-90
531	131.25	-138.75	-22.5	-33.75	-93.75	-157.5	-142.5	-101.25
532	120	-123.75	-18.75	-41.25	-101.25	-161.25	-150	-108.75
533	138.75	-90	-18.75	-33.75	-97.5	-157.5	-146.25	-112.5
534	161.25	-37.5	0	-7.5	-67.5	-127.5	-112.5	-78.75
535	127.5	-33.75	7.5	11.25	-45	-97.5	-86.25	-52.5
536	127.5	-45	7.5	7.5	-45	-93.75	-90	-60
537	168.75	-15	-3.75	3.75	-52.5	-105	-105	-75
538	187.5	3.75	-18.75	-7.5	-63.75	-112.5	-112.5	-82.5
539	221.25	-26.25	-30	-11.25	-71.25	-123.75	-120	-86.25
540	273.75	-82.5	-37.5	-15	-75	-135	-127.5	-90
541	251.25	-116.25	-30	-3.75	-67.5	-131.25	-120	-78.75
542	187.5	-116.25	-15	7.5	-63.75	-123.75	-108.75	-71.25
543	180	-97.5	-11.25	7.5	-56.25	-112.5	-97.5	-60
544	187.5	-101.25	-11.25	7.5	-56.25	-112.5	-93.75	-60
545	180	-86.25	-11.25	11.25	-56.25	-112.5	-93.75	-67.5
546	161.25	-45	-7.5	18.75	-45	-101.25	-90	-63.75
547	150	-7.5	3.75	33.75	-30	-86.25	-78.75	-52.5
548	176.25	11.25	7.5	41.25	-22.5	-75	-71.25	-41.25
549	221.25	3.75	-7.5	37.5	-22.5	-78.75	-75	-48.75
550	206.25	-7.5	-15	33.75	-22.5	-82.5	-86.25	-56.25
551	217.5	-15	-26.25	26.25	-33.75	-101.25	-97.5	-67.5
552	281.25	-48.75	-22.5	30	-37.5	-105	-97.5	-63.75
553	273.75	-90	-18.75	37.5	-30	-93.75	-82.5	-48.75
554	225	-82.5	-3.75	52.5	-18.75	-78.75	-60	-30
555	225	-48.75	0	56.25	-15	-75	-60	-26.25
556	243.75	-41.25	-18.75	41.25	-26.25	-86.25	-67.5	-33.75
557	221.25	-48.75	-15	45	-22.5	-82.5	-67.5	-37.5
558	176.25	-60	3.75	63.75	0	-60	-52.5	-37.5
559	153.75	-52.5	11.25	75	7.5	-48.75	-48.75	-33.75
560	157.5	-22.5	7.5	75	7.5	-48.75	-48.75	-30
561	187.5	3.75	-11.25	63.75	3.75	-56.25	-56.25	-37.5
562	202.5	11.25	-22.5	52.5	-7.5	-71.25	-67.5	-48.75
563	251.25	11.25	-26.25	48.75	-15	-78.75	-71.25	-45
564	330	-26.25	-33.75	52.5	-11.25	-78.75	-67.5	-33.75
565	341.25	-82.5	-30	67.5	0	-71.25	-56.25	-26.25
566	296.25	-75	-11.25	71.25	3.75	-56.25	-45	-15
567	273.75	-37.5	-3.75	78.75	7.5	-48.75	-37.5	-11.25
568	255	-37.5	3.75	97.5	26.25	-45	-37.5	-18.75
569	202.5	-45	11.25	97.5	30	-45	-37.5	-18.75
570	191.25	-11.25	11.25	108.75	45	-22.5	-18.75	-3.75
571	195	11.25	11.25	127.5	67.5	0	3.75	15
572	187.5	3.75	3.75	120	60	0	0	15
573	213.75	3.75	-3.75	108.75	52.5	-11.25	-15	0
574	221.25	18.75	-15	108.75	48.75	-18.75	-22.5	-11.25
575	266.25	33.75	-22.5	101.25	45	-22.5	-26.25	-11.25
576	360	37.5	-33.75	93.75	33.75	-33.75	-30	-11.25
577	363.75	7.5	-30	105	37.5	-33.75	-26.25	-7.5
578	296.25	-26.25	-11.25	116.25	45	-22.5	-15	0
579	288.75	-11.25	-11.25	108.75	37.5	-30	-18.75	-7.5
580	311.25	33.75	-18.75	108.75	33.75	-33.75	-26.25	-11.25
581	296.25	45	-11.25	116.25	45	-22.5	-18.75	-3.75
582	240	52.5	0	131.25	60	-3.75	0	11.25
583	217.5	93.75	3.75	138.75	71.25	7.5	11.25	18.75
584	243.75	112.5	3.75	142.5	75	7.5	7.5	15
585	285	93.75	0	142.5	75	7.5	7.5	15
586	326.25	67.5	-3.75	150	82.5	18.75	15	26.25
587	345	7.5	-3.75	153.75	86.25	26.25	26.25	41.25
588	378.75	-33.75	-11.25	146.25	75	11.25	18.75	41.25
589	390	-22.5	0	157.5	78.75	11.25	26.25	45
590	337.5	-7.5	11.25	165	93.75	22.5	33.75	48.75
591	318.75	7.5	-3.75	150	82.5	15	26.25	33.75
592	352.5	48.75	0	153.75	78.75	15	26.25	37.5
593	360	71.25	11.25	153.75	78.75	15	30	41.25
594	318.75	71.25	11.25	153.75	78.75	18.75	33.75	48.75
595	255	41.25	15	165	86.25	26.25	41.25	60
596	240	11.25	22.5	168.75	93.75	30	41.25	60
597	273.75	15	15	153.75	82.5	22.5	33.75	56.25
598	326.25	63.75	-3.75	131.25	63.75	11.25	26.25	45
599	397.5	127.5	-11.25	131.25	56.25	0	11.25	30
600	472.5	120	-15	123.75	41.25	-18.75	0	22.5
601	476.25	67.5	-15	120	33.75	-26.25	0	26.25
602	420	60	7.5	146.25	60	0	22.5	48.75
603	352.5	48.75	18.75	153.75	63.75	3.75	30	56.25
604	318.75	22.5	7.5	142.5	52.5	-3.75	22.5	45
605	307.5	26.25	7.5	146.25	56.25	3.75	26.25	48.75
606	281.25	48.75	18.75	153.75	63.75	11.25	33.75	52.5
607	262.5	71.25	26.25	157.5	67.5	15	37.5	52.5
608	292.5	108.75	33.75	161.25	71.25	18.75	37.5	56.25
609	322.5	97.5	37.5	165	75	18.75	33.75	52.5
610	322.5	60	33.75	157.5	67.5	11.25	30	52.5
611	356.25	52.5	22.5	146.25	52.5	0	22.5	48.75
612	420	37.5	7.5	131.25	30	-22.5	3.75	30
613	412.5	18.75	15	127.5	26.25	-30	0	33.75
614	367.5	18.75	26.25	127.5	26.25	-33.75	-3.75	37.5
615	330	11.25	30	123.75	22.5	-37.5	-11.25	26.25
616	307.5	15	33.75	116.25	15	-41.25	-11.25	18.75
617	315	48.75	30	108.75	7.5	-52.5	-22.5	15
618	296.25	90	30	101.25	-3.75	-60	-30	3.75
619	266.25	135	7.5	71.25	-26.25	-75	-52.5	-18.75
620	247.5	146.25	0	56.25	-33.75	-86.25	-67.5	-37.5
621	243.75	90	15	71.25	-26.25	-86.25	-71.25	-37.5
622	243.75	-3.75	33.75	82.5	-18.75	-75	-56.25	-22.5
623	285	-56.25	41.25	86.25	-11.25	-67.5	-45	-7.5
624	356.25	-86.25	33.75	82.5	-11.25	-75	-48.75	-7.5
625	326.25	-123.75	45	78.75	-22.5	-82.5	-52.5	-15
626	251.25	-112.5	56.25	78.75	-22.5	-86.25	-56.25	-18.75
627	273.75	-45	63.75	82.5	-18.75	-82.5	-56.25	-18.75
628	326.25	11.25	67.5	82.5	-22.5	-82.5	-52.5	-15
629	303.75	-3.75	63.75	71.25	-26.25	-90	-60	-22.5
630	221.25	-37.5	48.75	52.5	-45	-108.75	-82.5	-45
631	176.25	-3.75	48.75	37.5	-52.5	-116.25	-93.75	-56.25
632	183.75	41.25	45	33.75	-60	-120	-101.25	-63.75
633	210	37.5	37.5	26.25	-63.75	-127.5	-108.75	-75
634	202.5	-7.5	33.75	11.25	-78.75	-138.75	-120	-86.25
635	206.25	-41.25	26.25	-3.75	-90	-153.75	-131.25	-90
636	273.75	-41.25	22.5	-7.5	-90	-157.5	-131.25	-86.25
637	288.75	-48.75	18.75	-15	-101.25	-161.25	-127.5	-86.25
638	225	-75	26.25	-18.75	-105	-165	-127.5	-90
639	195	-90	26.25	-15	-93.75	-157.5	-123.75	-86.25
640	198.75	-108.75	30	-30	-101.25	-161.25	-127.5	-93.75
641	198.75	-135	37.5	-30	-101.25	-157.5	-127.5	-90
642	168.75	-127.5	41.25	-18.75	-90	-146.25	-112.5	-78.75
643	135	-82.5	41.25	-22.5	-93.75	-146.25	-112.5	-78.75
644	135	-56.25	33.75	-41.25	-108.75	-153.75	-127.5	-93.75
645	161.25	-52.5	30	-37.5	-97.5	-153.75	-131.25	-97.5
646	172.5	-60	3.75	-52.5	-120	-172.5	-150	-112.5
647	180	-82.5	-22.5	-90	-157.5	-202.5	-172.5	-127.5
648	221.25	-116.25	-33.75	-105	-168.75	-217.5	-183.75	-138.75
649	195	-138.75	-33.75	-108.75	-180	-228.75	-191.25	-146.25
650	150	-123.75	-22.5	-123.75	-195	-232.5	-187.5	-142.5
651	183.75	-86.25	-18.75	-108.75	-172.5	-217.5	-180	-138.75
652	213.75	-67.5	-22.5	-93.75	-150	-210	-176.25	-142.5
653	180	-90	-15	-97.5	-157.5	-210	-176.25	-138.75
654	116.25	-108.75	0	-97.5	-161.25	-206.25	-168.75	-131.25
655	78.75	-120	3.75	-93.75	-146.25	-183.75	-157.5	-123.75
656	93.75	-108.75	3.75	-90	-138.75	-180	-153.75	-123.75
657	127.5	-101.25	-11.25	-101.25	-153.75	-195	-172.5	-138.75
658	146.25	-123.75	-15	-105	-157.5	-206.25	-183.75	-146.25
659	161.25	-138.75	-26.25	-112.5	-161.25	-210	-183.75	-142.5
660	217.5	-131.25	-33.75	-123.75	-180	-225	-191.25	-150
661	213.75	-150	-33.75	-135	-191.25	-232.5	-198.75	-153.75
662	161.25	-161.25	-26.25	-123.75	-180	-225	-191.25	-146.25
663	142.5	-131.25	-18.75	-123.75	-180	-221.25	-183.75	-142.5
664	150	-97.5	-18.75	-146.25	-202.5	-228.75	-187.5	-146.25
665	157.5	-67.5	-18.75	-138.75	-187.5	-225	-187.5	-150
666	138.75	-37.5	-11.25	-116.25	-157.5	-202.5	-168.75	-131.25
667	108.75	-52.5	-3.75	-108.75	-157.5	-195	-161.25	-120
668	101.25	-112.5	0	-101.25	-150	-195	-161.25	-127.5
669	116.25	-146.25	-3.75	-97.5	-142.5	-195	-168.75	-135
670	131.25	-135	-15	-105	-150	-198.75	-172.5	-135
671	168.75	-116.25	-22.5	-116.25	-165	-210	-183.75	-146.25
672	228.75	-142.5	-45	-138.75	-187.5	-236.25	-202.5	-161.25
673	221.25	-168.75	-52.5	-146.25	-195	-247.5	-210	-168.75
674	161.25	-150	-45	-146.25	-191.25	-240	-206.25	-165
675	138.75	-123.75	-41.25	-153.75	-198.75	-240	-202.5	-165
676	116.25	-135	-33.75	-153.75	-206.25	-240	-202.5	-157.5
677	101.25	-150	-26.25	-135	-176.25	-221.25	-183.75	-142.5
678	90	-142.5	-11.25	-112.5	-153.75	-198.75	-165	-127.5
679	71.25	-131.25	0	-101.25	-138.75	-191.25	-153.75	-116.25
680	101.25	-97.5	-7.5	-120	-157.5	-191.25	-157.5	-120
681	157.5	-75	-18.75	-135	-168.75	-191.25	-161.25	-127.5
682	168.75	-82.5	-18.75	-112.5	-157.5	-187.5	-161.25	-127.5
683	161.25	-101.25	-33.75	-123.75	-172.5	-206.25	-180	-138.75
684	195	-127.5	-56.25	-153.75	-187.5	-232.5	-202.5	-161.25
685	206.25	-150	-52.5	-150	-187.5	-232.5	-202.5	-161.25
686	187.5	-127.5	-37.5	-135	-183.75	-217.5	-183.75	-146.25
687	168.75	-112.5	-37.5	-146.25	-191.25	-221.25	-187.5	-150
688	157.5	-112.5	-37.5	-131.25	-176.25	-221.25	-187.5	-146.25
689	142.5	-135	-26.25	-112.5	-157.5	-198.75	-165	-127.5
690	105	-176.25	-3.75	-101.25	-138.75	-176.25	-138.75	-105
691	82.5	-157.5	11.25	-82.5	-116.25	-161.25	-131.25	-93.75
692	101.25	-105	3.75	-86.25	-112.5	-161.25	-138.75	-97.5
693	123.75	-93.75	-7.5	-90	-127.5	-168.75	-142.5	-105
694	135	-97.5	-15	-97.5	-138.75	-180	-150	-112.5
695	157.5	-97.5	-30	-112.5	-150	-187.5	-161.25	-127.5
696	210	-120	-48.75	-127.5	-165	-210	-183.75	-146.25
697	225	-135	-52.5	-123.75	-161.25	-217.5	-187.5	-146.25
698	195	-120	-37.5	-116.25	-153.75	-202.5	-165	-131.25
699	168.75	-112.5	-41.25	-123.75	-165	-210	-172.5	-138.75
700	180	-90	-41.25	-123.75	-172.5	-217.5	-183.75	-146.25
701	202.5	-60	-30	-123.75	-165	-210	-176.25	-138.75
702	157.5	-63.75	-18.75	-108.75	-153.75	-202.5	-165	-131.25
703	75	-78.75	-11.25	-93.75	-142.5	-191.25	-161.25	-131.25
704	48.75	-78.75	-18.75	-108.75	-153.75	-187.5	-161.25	-131.25
705	116.25	-60	-18.75	-112.5	-161.25	-187.5	-157.5	-123.75
706	157.5	-56.25	-18.75	-97.5	-138.75	-176.25	-150	-123.75
707	165	-63.75	-26.25	-97.5	-135	-180	-153.75	-131.25
708	206.25	-75	-48.75	-123.75	-161.25	-202.5	-176.25	-150
709	183.75	-116.25	-56.25	-127.5	-168.75	-217.5	-180	-150
710	138.75	-157.5	-41.25	-112.5	-157.5	-202.5	-168.75	-135
711	138.75	-153.75	-26.25	-101.25	-146.25	-191.25	-157.5	-123.75
712	168.75	-127.5	-15	-90	-135	-176.25	-142.5	-112.5
713	180	-127.5	-3.75	-75	-120	-157.5	-123.75	-93.75
714	150	-138.75	3.75	-67.5	-112.5	-150	-116.25	-90
715	108.75	-127.5	15	-63.75	-108.75	-146.25	-116.25	-86.25
716	108.75	-90	3.75	-75	-112.5	-153.75	-127.5	-93.75
717	142.5	-67.5	-18.75	-93.75	-131.25	-172.5	-142.5	-112.5
718	146.25	-75	-30	-97.5	-138.75	-176.25	-150	-116.25
719	153.75	-97.5	-33.75	-105	-142.5	-187.5	-157.5	-123.75
720	213.75	-116.25	-41.25	-112.5	-153.75	-198.75	-168.75	-131.25
721	232.5	-120	-45	-116.25	-157.5	-210	-168.75	-131.25
722	172.5	-116.25	-41.25	-116.25	-161.25	-213.75	-172.5	-135
723	146.25	-82.5	-33.75	-116.25	-161.25	-206.25	-165	-127.5
724	183.75	-48.75	-37.5	-120	-165	-210	-168.75	-131.25
725	157.5	-82.5	-41.25	-120	-165	-210	-176.25	-138.75
726	97.5	-101.25	-30	-120	-161.25	-206.25	-165	-131.25
727	67.5	-82.5	-26.25	-127.5	-168.75	-202.5	-157.5	-127.5
728	86.25	-75	-30	-120	-161.25	-195	-153.75	-127.5
729	138.75	-90	-26.25	-112.5	-142.5	-180	-142.5	-116.25
730	172.5	-86.25	-22.5	-112.5	-135	-172.5	-138.75	-108.75
731	202.5	-48.75	-33.75	-116.25	-146.25	-183.75	-153.75	-116.25
732	255	-52.5	-63.75	-131.25	-168.75	-213.75	-176.25	-131.25
733	247.5	-101.25	-71.25	-131.25	-168.75	-213.75	-172.5	-135
734	195	-127.5	-52.5	-123.75	-165	-210	-168.75	-131.25
735	172.5	-123.75	-30	-112.5	-157.5	-206.25	-165	-123.75
736	165	-146.25	-33.75	-112.5	-161.25	-206.25	-168.75	-131.25
737	153.75	-165	-41.25	-131.25	-180	-217.5	-176.25	-142.5
738	120	-161.25	-30	-131.25	-176.25	-206.25	-161.25	-131.25
739	90	-150	-22.5	-112.5	-153.75	-187.5	-146.25	-112.5
740	93.75	-112.5	-18.75	-108.75	-142.5	-180	-146.25	-112.5
741	120	-86.25	-26.25	-120	-153.75	-187.5	-157.5	-127.5
742	142.5	-97.5	-22.5	-112.5	-146.25	-191.25	-161.25	-131.25
743	153.75	-108.75	-18.75	-108.75	-138.75	-191.25	-165	-127.5
744	202.5	-116.25	-41.25	-127.5	-161.25	-210	-180	-138.75
745	228.75	-135	-48.75	-135	-172.5	-217.5	-180	-135
746	191.25	-138.75	-33.75	-123.75	-157.5	-206.25	-165	-127.5
747	153.75	-146.25	-30	-135	-168.75	-206.25	-168.75	-135
748	168.75	-131.25	-33.75	-150	-183.75	-213.75	-172.5	-138.75
749	172.5	-112.5	-33.75	-146.25	-172.5	-210	-168.75	-135
750	112.5	-127.5	-30	-131.25	-157.5	-206.25	-168.75	-135
751	78.75	-116.25	-22.5	-123.75	-153.75	-198.75	-161.25	-127.5
752	101.25	-71.25	-18.75	-123.75	-153.75	-191.25	-157.5	-120
753	127.5	-48.75	-45	-146.25	-176.25	-213.75	-180	-146.25
754	127.5	-71.25	-67.5	-168.75	-195	-236.25	-202.5	-168.75
755	165	-82.5	-71.25	-172.5	-198.75	-240	-202.5	-165
756	232.5	-112.5	-75	-183.75	-206.25	-247.5	-206.25	-161.25
757	236.25	-142.5	-78.75	-183.75	-210	-251.25	-210	-161.25
758	180	-127.5	-71.25	-165	-198.75	-243.75	-198.75	-157.5
759	161.25	-112.5	-60	-165	-202.5	-243.75	-198.75	-161.25
760	165	-112.5	-60	-168.75	-202.5	-240	-195	-153.75
761	123.75	-138.75	-52.5	-172.5	-202.5	-236.25	-191.25	-146.25
762	108.75	-161.25	-45	-161.25	-191.25	-225	-180	-146.25
763	108.75	-131.25	-37.5	-142.5	-176.25	-213.75	-172.5	-142.5
764	108.75	-86.25	-37.5	-146.25	-180	-213.75	-176.25	-142.5
765	135	-67.5	-48.75	-157.5	-183.75	-217.5	-183.75	-142.5
766	176.25	-41.25	-63.75	-168.75	-191.25	-225	-191.25	-150
767	210	-33.75	-82.5	-187.5	-213.75	-240	-202.5	-157.5
768	236.25	-75	-97.5	-198.75	-221.25	-255	-213.75	-168.75
769	195	-146.25	-82.5	-180	-206.25	-247.5	-206.25	-165
770	138.75	-191.25	-56.25	-165	-198.75	-236.25	-195	-161.25
771	153.75	-180	-52.5	-157.5	-191.25	-232.5	-191.25	-157.5
772	153.75	-187.5	-52.5	-161.25	-195	-232.5	-187.5	-157.5
773	150	-176.25	-37.5	-146.25	-176.25	-221.25	-176.25	-138.75
774	146.25	-146.25	-37.5	-138.75	-172.5	-213.75	-172.5	-135
775	86.25	-146.25	-30	-142.5	-176.25	-210	-168.75	-131.25
776	60	-138.75	-41.25	-153.75	-183.75	-213.75	-172.5	-138.75
777	82.5	-135	-60	-161.25	-187.5	-221.25	-183.75	-153.75
778	108.75	-127.5	-63.75	-161.25	-187.5	-225	-191.25	-157.5
779	172.5	-108.75	-60	-161.25	-187.5	-225	-187.5	-150
780	266.25	-105	-82.5	-183.75	-210	-251.25	-210	-168.75
781	262.5	-105	-93.75	-195	-221.25	-262.5	-217.5	-176.25
782	183.75	-120	-78.75	-183.75	-213.75	-251.25	-206.25	-165
783	153.75	-123.75	-67.5	-183.75	-213.75	-255	-210	-168.75
784	146.25	-123.75	-75	-206.25	-236.25	-266.25	-217.5	-180
785	131.25	-138.75	-82.5	-206.25	-247.5	-270	-221.25	-180
786	105	-127.5	-78.75	-180	-213.75	-255	-210	-168.75
787	67.5	-93.75	-56.25	-161.25	-191.25	-232.5	-195	-157.5
788	90	-60	-41.25	-153.75	-187.5	-225	-187.5	-150
789	142.5	-63.75	-48.75	-157.5	-191.25	-228.75	-191.25	-150
790	146.25	-101.25	-56.25	-157.5	-191.25	-232.5	-195	-153.75
791	150	-120	-60	-161.25	-195	-240	-206.25	-165
792	187.5	-138.75	-82.5	-183.75	-217.5	-262.5	-225	-183.75
793	198.75	-153.75	-86.25	-187.5	-221.25	-262.5	-221.25	-180
794	153.75	-165	-60	-165	-198.75	-243.75	-198.75	-161.25
795	135	-187.5	-52.5	-161.25	-191.25	-236.25	-191.25	-157.5
796	157.5	-176.25	-63.75	-168.75	-202.5	-243.75	-198.75	-165
797	165	-153.75	-67.5	-168.75	-206.25	-247.5	-206.25	-168.75
798	127.5	-153.75	-48.75	-157.5	-195	-236.25	-195	-157.5
799	105	-123.75	-37.5	-153.75	-183.75	-225	-183.75	-150
800	101.25	-90	-48.75	-153.75	-183.75	-225	-187.5	-153.75
801	116.25	-78.75	-75	-180	-206.25	-232.5	-198.75	-165
802	131.25	-56.25	-82.5	-195	-221.25	-240	-202.5	-165
803	157.5	-67.5	-86.25	-198.75	-225	-255	-213.75	-176.25
804	206.25	-127.5	-97.5	-206.25	-228.75	-270	-225	-183.75
805	187.5	-176.25	-97.5	-202.5	-228.75	-266.25	-221.25	-176.25
806	142.5	-165	-82.5	-187.5	-217.5	-258.75	-213.75	-172.5
807	142.5	-157.5	-71.25	-176.25	-210	-251.25	-206.25	-168.75
808	161.25	-153.75	-63.75	-172.5	-206.25	-247.5	-198.75	-165
809	176.25	-127.5	-56.25	-168.75	-198.75	-243.75	-195	-157.5
810	135	-138.75	-41.25	-150	-183.75	-225	-180	-146.25
811	67.5	-150	-37.5	-153.75	-180	-221.25	-180	-150
812	63.75	-123.75	-41.25	-157.5	-183.75	-225	-191.25	-157.5
813	142.5	-90	-52.5	-161.25	-183.75	-225	-191.25	-157.5
814	168.75	-93.75	-67.5	-172.5	-198.75	-236.25	-202.5	-157.5
815	161.25	-127.5	-82.5	-187.5	-217.5	-258.75	-225	-176.25
816	221.25	-146.25	-86.25	-191.25	-225	-273.75	-240	-191.25
817	247.5	-142.5	-67.5	-176.25	-210	-258.75	-221.25	-172.5
818	187.5	-157.5	-48.75	-157.5	-191.25	-240	-195	-150
819	131.25	-172.5	-56.25	-165	-195	-240	-198.75	-153.75
820	131.25	-138.75	-56.25	-165	-195	-236.25	-195	-153.75
821	135	-123.75	-48.75	-165	-198.75	-232.5	-191.25	-153.75
822	116.25	-123.75	-33.75	-157.5	-187.5	-225	-183.75	-150
823	93.75	-90	-22.5	-138.75	-172.5	-213.75	-176.25	-142.5
824	90	-60	-15	-131.25	-161.25	-202.5	-168.75	-135
825	93.75	-60	-30	-146.25	-176.25	-213.75	-180	-142.5
826	105	-67.5	-37.5	-165	-195	-225	-191.25	-153.75
827	135	-67.5	-33.75	-165	-195	-228.75	-195	-157.5
828	195	-90	-30	-157.5	-191.25	-236.25	-195	-161.25
829	195	-142.5	-26.25	-153.75	-195	-240	-198.75	-161.25
830	172.5	-123.75	-11.25	-131.25	-176.25	-225	-183.75	-146.25
831	176.25	-78.75	0	-123.75	-168.75	-213.75	-172.5	-135
832	176.25	-67.5	0	-138.75	-180	-217.5	-172.5	-135
833	180	-60	7.5	-123.75	-161.25	-206.25	-165	-135
834	153.75	-56.25	18.75	-101.25	-142.5	-198.75	-161.25	-135
835	82.5	-67.5	22.5	-108.75	-146.25	-198.75	-161.25	-135
836	52.5	-78.75	22.5	-120	-161.25	-195	-165	-138.75
837	90	-63.75	22.5	-108.75	-153.75	-195	-168.75	-138.75
838	135	-22.5	26.25	-97.5	-138.75	-187.5	-165	-131.25
839	191.25	7.5	26.25	-97.5	-142.5	-187.5	-157.5	-123.75
840	247.5	0	-7.5	-123.75	-161.25	-210	-176.25	-135
841	221.25	-33.75	-37.5	-142.5	-180	-228.75	-195	-150
842	161.25	-48.75	-48.75	-150	-183.75	-228.75	-191.25	-153.75
843	176.25	-15	-56.25	-146.25	-176.25	-217.5	-180	-142.5
844	183.75	-7.5	-75	-146.25	-176.25	-213.75	-172.5	-135
845	172.5	-48.75	-67.5	-131.25	-161.25	-202.5	-157.5	-120
846	157.5	-93.75	-37.5	-105	-135	-176.25	-135	-101.25
847	153.75	-75	-26.25	-97.5	-127.5	-161.25	-127.5	-93.75
848	172.5	-26.25	-30	-105	-127.5	-161.25	-127.5	-90
849	187.5	-22.5	-63.75	-127.5	-150	-180	-146.25	-108.75
850	198.75	-30	-93.75	-157.5	-176.25	-206.25	-172.5	-135
851	228.75	-45	-108.75	-172.5	-187.5	-217.5	-180	-138.75
852	281.25	-97.5	-112.5	-176.25	-195	-225	-183.75	-138.75
853	288.75	-120	-97.5	-176.25	-195	-228.75	-180	-135
854	236.25	-78.75	-93.75	-176.25	-198.75	-232.5	-183.75	-138.75
855	210	-37.5	-90	-183.75	-206.25	-240	-191.25	-146.25
856	210	-48.75	-78.75	-176.25	-202.5	-232.5	-183.75	-138.75
857	198.75	-71.25	-67.5	-153.75	-183.75	-221.25	-176.25	-131.25
858	165	-86.25	-60	-146.25	-176.25	-221.25	-176.25	-135
859	120	-108.75	-48.75	-138.75	-172.5	-210	-168.75	-123.75
860	116.25	-112.5	-48.75	-146.25	-176.25	-210	-168.75	-127.5
861	123.75	-123.75	-71.25	-161.25	-187.5	-221.25	-183.75	-150
862	138.75	-108.75	-75	-168.75	-187.5	-221.25	-191.25	-153.75
863	183.75	-67.5	-90	-180	-195	-228.75	-195	-157.5
864	236.25	-67.5	-108.75	-202.5	-221.25	-258.75	-217.5	-176.25
865	247.5	-101.25	-112.5	-210	-236.25	-273.75	-228.75	-191.25
866	195	-146.25	-101.25	-202.5	-228.75	-262.5	-217.5	-183.75
867	161.25	-142.5	-86.25	-195	-225	-255	-210	-172.5
868	153.75	-120	-86.25	-191.25	-221.25	-255	-210	-172.5
869	138.75	-150	-86.25	-206.25	-228.75	-266.25	-221.25	-183.75
870	97.5	-183.75	-78.75	-210	-240	-262.5	-217.5	-180
871	71.25	-157.5	-78.75	-206.25	-225	-247.5	-202.5	-165
872	67.5	-127.5	-78.75	-213.75	-225	-243.75	-198.75	-161.25
873	93.75	-138.75	-75	-187.5	-210	-236.25	-202.5	-168.75
874	127.5	-138.75	-71.25	-176.25	-198.75	-240	-210	-172.5
875	150	-131.25	-86.25	-206.25	-225	-262.5	-228.75	-187.5
876	202.5	-131.25	-120	-228.75	-251.25	-288.75	-247.5	-206.25
877	240	-123.75	-123.75	-236.25	-262.5	-292.5	-247.5	-206.25
878	195	-131.25	-105	-221.25	-251.25	-288.75	-240	-202.5
879	142.5	-142.5	-105	-217.5	-251.25	-292.5	-247.5	-206.25
880	142.5	-123.75	-108.75	-217.5	-247.5	-285	-240	-206.25
881	138.75	-116.25	-97.5	-213.75	-240	-281.25	-236.25	-202.5
882	90	-153.75	-78.75	-195	-225	-266.25	-221.25	-180
883	60	-157.5	-71.25	-187.5	-213.75	-255	-210	-180
884	90	-112.5	-82.5	-195	-217.5	-255	-217.5	-187.5
885	135	-108.75	-86.25	-195	-213.75	-243.75	-210	-176.25
886	157.5	-153.75	-78.75	-191.25	-206.25	-240	-202.5	-168.75
887	165	-183.75	-90	-195	-217.5	-258.75	-221.25	-187.5
888	202.5	-183.75	-112.5	-213.75	-240	-285	-243.75	-206.25
889	213.75	-172.5	-112.5	-213.75	-243.75	-288.75	-243.75	-202.5
890	161.25	-161.25	-93.75	-198.75	-228.75	-273.75	-225	-187.5
891	131.25	-153.75	-86.25	-191.25	-225	-270	-225	-195
892	138.75	-153.75	-78.75	-187.5	-236.25	-285	-240	-210
893	138.75	-168.75	-45	-150	-225	-296.25	-258.75	-228.75
894	138.75	-202.5	37.5	-71.25	-191.25	-288.75	-266.25	-247.5
895	135	-251.25	142.5	18.75	-161.25	-288.75	-281.25	-266.25
896	131.25	-285	225	90	-150	-307.5	-307.5	-288.75
897	161.25	-273.75	273.75	142.5	-135	-318.75	-326.25	-303.75
898	172.5	-255	315	206.25	-105	-315	-330	-307.5
899	202.5	-217.5	348.75	273.75	-67.5	-288.75	-315	-292.5
900	303.75	-161.25	378.75	341.25	-15	-247.5	-273.75	-255
901	360	-112.5	412.5	423.75	67.5	-180	-206.25	-198.75
902	330	-48.75	446.25	506.25	153.75	-97.5	-123.75	-123.75
903	326.25	22.5	465	570	228.75	-15	-41.25	-52.5
904	412.5	127.5	472.5	641.25	318.75	90	56.25	37.5
905	502.5	255	438.75	682.5	416.25	217.5	183.75	153.75
906	513.75	371.25	378.75	671.25	517.5	356.25	333.75	288.75
907	525	513.75	285	618.75	603.75	502.5	487.5	431.25
908	577.5	678.75	183.75	562.5	701.25	660	648.75	585
909	637.5	881.25	120	547.5	821.25	836.25	828.75	746.25
910	663.75	1080	33.75	483.75	915	1005	1012.5	922.5
911	690	1267.5	-146.25	300	948.75	1155	1207.5	1117.5
912	742.5	1395	-393.75	22.5	918.75	1271.25	1376.25	1297.5
913	757.5	1466.25	-630	-262.5	900	1387.5	1530	1451.25
914	716.25	1552.5	-813.75	-491.25	915	1518.75	1683.75	1582.5
915	656.25	1597.5	-915	-618.75	948.75	1635	1796.25	1657.5
916	607.5	1567.5	-922.5	-641.25	1023.75	1732.5	1860	1672.5
917	547.5	1492.5	-956.25	-716.25	1042.5	1762.5	1856.25	1627.5
918	461.25	1398.75	-1042.5	-851.25	963.75	1687.5	1770	1533.75
919	337.5	1241.25	-1076.25	-922.5	832.5	1496.25	1567.5	1353.75
920	210	1020	-1023.75	-945	630	1192.5	1252.5	1072.5
921	161.25	802.5	-978.75	-1005	345	813.75	896.25	780
922	127.5	588.75	-975	-1121.25	3.75	412.5	543.75	517.5
923	78.75	405	-948.75	-1222.5	-315	41.25	228.75	281.25
924	93.75	288.75	-907.5	-1241.25	-498.75	-198.75	0	101.25
925	90	157.5	-847.5	-1170	-536.25	-300	-123.75	-30
926	22.5	22.5	-772.5	-1031.25	-472.5	-292.5	-161.25	-90
927	7.5	-22.5	-701.25	-870	-367.5	-240	-142.5	-93.75
928	45	-26.25	-645	-757.5	-303.75	-198.75	-112.5	-78.75
929	37.5	-63.75	-592.5	-686.25	-292.5	-191.25	-108.75	-75
930	26.25	-60	-532.5	-611.25	-285	-191.25	-112.5	-86.25
931	33.75	-26.25	-457.5	-506.25	-236.25	-161.25	-90	-71.25
932	75	18.75	-386.25	-393.75	-168.75	-123.75	-63.75	-48.75
933	101.25	52.5	-330	-318.75	-127.5	-101.25	-52.5	-41.25
934	116.25	48.75	-281.25	-262.5	-93.75	-82.5	-41.25	-33.75
935	168.75	33.75	-251.25	-217.5	-78.75	-90	-56.25	-48.75
936	240	26.25	-210	-176.25	-75	-105	-71.25	-67.5
937	270	11.25	-172.5	-150	-63.75	-105	-75	-75
938	232.5	-7.5	-127.5	-116.25	-48.75	-97.5	-67.5	-71.25
939	198.75	-15	-93.75	-93.75	-41.25	-93.75	-63.75	-67.5
940	202.5	-22.5	-82.5	-82.5	-45	-93.75	-67.5	-78.75
941	202.5	-33.75	-71.25	-75	-48.75	-101.25	-71.25	-82.5
942	176.25	-33.75	-56.25	-63.75	-45	-97.5	-67.5	-78.75
943	138.75	-30	-45	-52.5	-41.25	-93.75	-63.75	-75
944	105	-37.5	-45	-52.5	-45	-101.25	-75	-82.5
945	108.75	-41.25	-56.25	-60	-60	-120	-93.75	-101.25
946	131.25	-56.25	-63.75	-67.5	-75	-135	-112.5	-116.25
947	161.25	-75	-60	-71.25	-82.5	-146.25	-123.75	-123.75
948	210	-82.5	-71.25	-71.25	-90	-165	-142.5	-138.75
949	217.5	-105	-78.75	-78.75	-101.25	-183.75	-157.5	-153.75
950	180	-116.25	-60	-63.75	-93.75	-176.25	-146.25	-138.75
951	180	-105	-45	-48.75	-78.75	-161.25	-131.25	-123.75
952	191.25	-112.5	-33.75	-30	-67.5	-146.25	-116.25	-112.5
953	187.5	-120	-22.5	-18.75	-60	-142.5	-112.5	-108.75
954	180	-101.25	-15	-18.75	-60	-138.75	-108.75	-108.75
955	172.5	-60	-11.25	-11.25	-52.5	-131.25	-101.25	-101.25
956	161.25	-41.25	-11.25	-3.75	-45	-123.75	-101.25	-101.25
957	180	-41.25	-30	-26.25	-63.75	-142.5	-123.75	-120
958	198.75	-45	-37.5	-33.75	-71.25	-150	-131.25	-127.5
959	213.75	-41.25	-41.25	-15	-60	-142.5	-120	-116.25
960	262.5	-56.25	-45	-26.25	-67.5	-153.75	-131.25	-120
961	273.75	-97.5	-48.75	-41.25	-86.25	-168.75	-138.75	-127.5
962	217.5	-105	-48.75	-37.5	-90	-168.75	-131.25	-120
963	195	-78.75	-33.75	-26.25	-78.75	-157.5	-123.75	-116.25
964	213.75	-52.5	-30	-18.75	-67.5	-150	-120	-112.5
965	236.25	-48.75	-30	-11.25	-63.75	-142.5	-112.5	-105
966	198.75	-86.25	-22.5	-3.75	-56.25	-131.25	-105	-101.25
967	131.25	-101.25	0	15	-37.5	-116.25	-93.75	-93.75
968	138.75	-56.25	0	15	-41.25	-116.25	-97.5	-101.25
969	180	-22.5	-18.75	-3.75	-60	-131.25	-116.25	-112.5
970	172.5	-22.5	-30	-7.5	-60	-138.75	-123.75	-116.25
971	210	-22.5	-33.75	-3.75	-56.25	-131.25	-116.25	-116.25
972	288.75	-45	-33.75	3.75	-48.75	-127.5	-105	-105
973	296.25	-75	-22.5	11.25	-41.25	-120	-93.75	-90
974	258.75	-75	-3.75	33.75	-22.5	-101.25	-75	-75
975	236.25	-82.5	3.75	45	-11.25	-93.75	-63.75	-67.5
976	213.75	-108.75	-15	22.5	-33.75	-112.5	-82.5	-82.5
977	206.25	-105	-22.5	22.5	-33.75	-116.25	-90	-90
978	187.5	-67.5	-15	37.5	-22.5	-105	-82.5	-82.5
979	161.25	-33.75	-18.75	26.25	-33.75	-112.5	-93.75	-101.25
980	146.25	-18.75	-11.25	30	-30	-105	-90	-97.5
981	165	-22.5	-11.25	37.5	-22.5	-101.25	-86.25	-86.25
982	172.5	-37.5	-37.5	26.25	-30	-116.25	-105	-101.25
983	221.25	-18.75	-52.5	11.25	-45	-127.5	-116.25	-116.25
984	337.5	11.25	-56.25	11.25	-45	-127.5	-108.75	-108.75
985	367.5	-11.25	-48.75	30	-30	-116.25	-90	-90
986	288.75	-48.75	-30	48.75	-11.25	-97.5	-71.25	-75
987	240	-45	-15	60	0	-82.5	-56.25	-67.5
988	270	-22.5	-15	60	-3.75	-86.25	-60	-71.25
989	262.5	-37.5	-22.5	48.75	-11.25	-93.75	-67.5	-78.75
990	213.75	-52.5	-18.75	63.75	0	-86.25	-63.75	-78.75
991	183.75	-30	3.75	93.75	33.75	-60	-45	-60
992	183.75	-11.25	15	105	48.75	-37.5	-30	-45
993	206.25	-15	0	97.5	41.25	-45	-33.75	-48.75
994	243.75	-3.75	-15	90	33.75	-52.5	-41.25	-56.25
995	300	22.5	-22.5	90	33.75	-52.5	-37.5	-56.25
996	356.25	15	-41.25	67.5	7.5	-75	-60	-71.25
997	356.25	3.75	-52.5	60	3.75	-90	-71.25	-86.25
998	303.75	3.75	-37.5	78.75	26.25	-67.5	-52.5	-71.25
999	285	-15	-18.75	101.25	45	-45	-26.25	-52.5
1000	307.5	-30	-3.75	116.25	56.25	-26.25	-3.75	-30
1001	300	-45	0	123.75	63.75	-22.5	0	-18.75
1002	240	-52.5	3.75	127.5	67.5	-18.75	3.75	-18.75
1003	191.25	-45	7.5	127.5	67.5	-15	3.75	-18.75
1004	198.75	-37.5	3.75	135	75	-7.5	7.5	-15
1005	270	15	0	142.5	90	3.75	11.25	-15
1006	333.75	75	3.75	150	97.5	7.5	11.25	-7.5
1007	345	56.25	-7.5	135	82.5	-11.25	-3.75	-22.5
1008	363.75	0	-41.25	105	48.75	-48.75	-37.5	-60
1009	367.5	-26.25	-48.75	105	41.25	-52.5	-45	-63.75
1010	326.25	-33.75	-33.75	120	52.5	-41.25	-26.25	-45
1011	322.5	-22.5	-18.75	135	71.25	-22.5	-7.5	-26.25
1012	330	-15	-15	142.5	75	-18.75	-3.75	-22.5
1013	318.75	0	-3.75	153.75	86.25	-7.5	7.5	-15
1014	288.75	30	3.75	165	97.5	11.25	26.25	3.75
1015	255	56.25	3.75	168.75	108.75	22.5	33.75	11.25
1016	277.5	93.75	11.25	180	116.25	30	41.25	18.75
1017	341.25	112.5	11.25	180	120	33.75	45	22.5
1018	337.5	71.25	-3.75	165	101.25	18.75	26.25	3.75
1019	311.25	41.25	-22.5	150	86.25	3.75	15	-11.25
1020	367.5	37.5	-52.5	120	56.25	-18.75	-3.75	-22.5
1021	405	33.75	-60	120	56.25	-22.5	-7.5	-26.25
1022	360	30	-41.25	135	71.25	-11.25	11.25	-15
1023	345	30	-26.25	146.25	75	0	22.5	-3.75
1024	363.75	7.5	-15	161.25	93.75	11.25	33.75	7.5
1025	356.25	-11.25	-7.5	172.5	101.25	18.75	41.25	15
1026	337.5	33.75	-7.5	168.75	90	7.5	30	7.5
1027	311.25	93.75	-3.75	168.75	93.75	11.25	30	3.75
1028	303.75	120	3.75	172.5	101.25	22.5	37.5	11.25
1029	333.75	127.5	-3.75	165	97.5	18.75	37.5	11.25
1030	348.75	108.75	-3.75	165	93.75	18.75	33.75	11.25
1031	352.5	60	-11.25	153.75	86.25	3.75	22.5	3.75
1032	412.5	37.5	-26.25	142.5	71.25	-11.25	7.5	-7.5
1033	435	7.5	-22.5	138.75	60	-22.5	3.75	-11.25
1034	390	-7.5	-15	138.75	56.25	-18.75	7.5	-3.75
1035	367.5	11.25	-15	138.75	56.25	-18.75	11.25	-3.75
1036	363.75	11.25	-15	138.75	56.25	-22.5	3.75	-15
1037	352.5	11.25	-3.75	142.5	56.25	-22.5	3.75	-11.25
1038	330	37.5	3.75	146.25	63.75	-15	15	-3.75
1039	311.25	71.25	11.25	146.25	63.75	-7.5	18.75	0
1040	300	90	18.75	150	71.25	0	26.25	7.5
1041	330	101.25	3.75	131.25	52.5	-15	11.25	-3.75
1042	356.25	86.25	-11.25	116.25	30	-37.5	-7.5	-22.5
1043	348.75	52.5	-7.5	123.75	37.5	-37.5	-7.5	-18.75
1044	386.25	33.75	-11.25	116.25	33.75	-41.25	-11.25	-15
1045	416.25	15	-7.5	108.75	22.5	-48.75	-11.25	-11.25
1046	371.25	-11.25	11.25	127.5	37.5	-37.5	3.75	0
1047	330	-22.5	30	135	48.75	-30	15	3.75
1048	341.25	0	30	123.75	33.75	-41.25	-3.75	-22.5
1049	341.25	11.25	33.75	116.25	30	-48.75	-11.25	-33.75
1050	288.75	-11.25	37.5	116.25	30	-48.75	-15	-37.5
1051	240	0	33.75	112.5	22.5	-56.25	-26.25	-48.75
1052	225	22.5	30	101.25	15	-60	-30	-52.5
1053	243.75	26.25	30	97.5	11.25	-60	-33.75	-52.5
1054	270	22.5	30	93.75	15	-63.75	-41.25	-56.25
1055	292.5	3.75	30	86.25	3.75	-71.25	-48.75	-63.75
1056	337.5	-22.5	18.75	71.25	-15	-93.75	-67.5	-78.75
1057	371.25	-18.75	15	67.5	-18.75	-105	-75	-86.25
1058	330	-15	22.5	63.75	-26.25	-112.5	-78.75	-90
1059	277.5	-48.75	22.5	52.5	-37.5	-120	-86.25	-101.25
1060	273.75	-63.75	22.5	48.75	-37.5	-120	-90	-105
1061	292.5	-33.75	22.5	48.75	-30	-116.25	-86.25	-105
1062	262.5	-30	45	60	-18.75	-105	-78.75	-97.5
1063	180	-41.25	52.5	60	-15	-101.25	-75	-93.75
1064	142.5	-18.75	48.75	48.75	-22.5	-105	-82.5	-105
1065	165	-26.25	30	33.75	-33.75	-120	-101.25	-120
1066	213.75	-26.25	22.5	30	-37.5	-120	-101.25	-120
1067	247.5	0	18.75	30	-37.5	-123.75	-105	-123.75
1068	266.25	-11.25	3.75	7.5	-56.25	-142.5	-123.75	-138.75
1069	247.5	-71.25	-3.75	-11.25	-71.25	-157.5	-131.25	-146.25
1070	206.25	-123.75	18.75	3.75	-60	-142.5	-116.25	-135
1071	195	-142.5	37.5	18.75	-41.25	-127.5	-105	-127.5
1072	206.25	-135	33.75	11.25	-52.5	-135	-112.5	-135
1073	195	-127.5	18.75	-7.5	-71.25	-157.5	-131.25	-150
1074	150	-123.75	22.5	-7.5	-75	-161.25	-138.75	-150
1075	105	-116.25	18.75	-15	-78.75	-165	-142.5	-153.75
1076	108.75	-101.25	15	-18.75	-78.75	-161.25	-142.5	-150
1077	150	-86.25	7.5	-22.5	-75	-157.5	-138.75	-150
1078	187.5	-52.5	3.75	-30	-82.5	-161.25	-142.5	-153.75
1079	217.5	-22.5	-11.25	-48.75	-97.5	-172.5	-150	-161.25
1080	247.5	-60	-26.25	-63.75	-112.5	-187.5	-165	-176.25
1081	243.75	-123.75	-15	-56.25	-105	-183.75	-161.25	-176.25
1082	183.75	-157.5	3.75	-45	-93.75	-172.5	-150	-168.75
1083	161.25	-142.5	0	-56.25	-105	-180	-153.75	-172.5
1084	176.25	-120	-7.5	-71.25	-116.25	-191.25	-161.25	-176.25
1085	165	-116.25	-3.75	-63.75	-108.75	-187.5	-157.5	-168.75
1086	127.5	-123.75	-3.75	-60	-105	-183.75	-157.5	-165
1087	97.5	-112.5	11.25	-48.75	-93.75	-165	-138.75	-153.75
1088	105	-82.5	11.25	-41.25	-82.5	-153.75	-131.25	-150
1089	123.75	-75	0	-60	-93.75	-165	-146.25	-161.25
1090	138.75	-97.5	-7.5	-75	-112.5	-180	-161.25	-176.25
1091	168.75	-116.25	-15	-71.25	-105	-176.25	-157.5	-176.25
1092	213.75	-131.25	-22.5	-82.5	-116.25	-187.5	-165	-183.75
1093	221.25	-153.75	-33.75	-97.5	-135	-206.25	-180	-195
1094	161.25	-172.5	-26.25	-90	-123.75	-198.75	-168.75	-183.75
1095	127.5	-187.5	-15	-82.5	-116.25	-191.25	-161.25	-172.5
1096	135	-206.25	-18.75	-90	-127.5	-195	-168.75	-180
1097	131.25	-198.75	-22.5	-93.75	-131.25	-198.75	-168.75	-183.75
1098	101.25	-168.75	-15	-93.75	-131.25	-198.75	-172.5	-183.75
1099	90	-101.25	-3.75	-82.5	-112.5	-187.5	-165	-180
1100	97.5	-45	-3.75	-75	-105	-180	-165	-180
1101	135	-56.25	-22.5	-86.25	-112.5	-187.5	-180	-198.75
1102	180	-93.75	-18.75	-82.5	-105	-180	-172.5	-191.25
1103	183.75	-120	-15	-75	-101.25	-176.25	-165	-187.5
1104	202.5	-146.25	-33.75	-93.75	-123.75	-198.75	-183.75	-202.5
1105	202.5	-176.25	-41.25	-101.25	-131.25	-206.25	-183.75	-198.75
1106	153.75	-187.5	-30	-90	-120	-195	-168.75	-183.75
1107	131.25	-187.5	-18.75	-75	-105	-180	-153.75	-176.25
1108	150	-161.25	-11.25	-67.5	-93.75	-168.75	-146.25	-168.75
1109	157.5	-123.75	-11.25	-67.5	-93.75	-165	-146.25	-168.75
1110	131.25	-123.75	-3.75	-63.75	-86.25	-157.5	-138.75	-165
1111	82.5	-142.5	11.25	-52.5	-75	-142.5	-123.75	-157.5
1112	71.25	-138.75	11.25	-48.75	-71.25	-138.75	-123.75	-153.75
1113	97.5	-127.5	0	-52.5	-78.75	-146.25	-131.25	-161.25
1114	112.5	-131.25	-18.75	-71.25	-93.75	-165	-150	-180
1115	146.25	-120	-30	-82.5	-105	-176.25	-161.25	-180
1116	225	-97.5	-45	-93.75	-116.25	-187.5	-172.5	-187.5
1117	258.75	-101.25	-56.25	-97.5	-123.75	-198.75	-180	-195
1118	217.5	-105	-45	-90	-116.25	-195	-176.25	-187.5
1119	191.25	-105	-26.25	-78.75	-105	-183.75	-165	-180
1120	187.5	-123.75	-18.75	-67.5	-93.75	-172.5	-157.5	-180
1121	150	-153.75	-11.25	-60	-82.5	-161.25	-146.25	-176.25
1122	116.25	-146.25	7.5	-52.5	-75	-150	-135	-161.25
1123	93.75	-105	7.5	-56.25	-78.75	-146.25	-135	-165
1124	63.75	-78.75	0	-48.75	-67.5	-142.5	-135	-165
1125	78.75	-90	-11.25	-52.5	-67.5	-146.25	-142.5	-168.75
1126	131.25	-105	-15	-56.25	-75	-146.25	-138.75	-165
1127	172.5	-108.75	-11.25	-52.5	-67.5	-135	-127.5	-146.25
1128	213.75	-101.25	-26.25	-63.75	-78.75	-150	-135	-153.75
1129	225	-108.75	-41.25	-75	-93.75	-168.75	-150	-168.75
1130	183.75	-142.5	-30	-67.5	-86.25	-165	-146.25	-165
1131	153.75	-146.25	-15	-52.5	-71.25	-150	-135	-157.5
1132	157.5	-116.25	-30	-60	-82.5	-157.5	-142.5	-168.75
1133	168.75	-108.75	-41.25	-78.75	-97.5	-172.5	-157.5	-183.75
1134	153.75	-116.25	-26.25	-67.5	-86.25	-157.5	-142.5	-172.5
1135	116.25	-112.5	0	-45	-63.75	-138.75	-123.75	-153.75
1136	101.25	-93.75	3.75	-37.5	-56.25	-131.25	-120	-153.75
1137	112.5	-93.75	-15	-60	-75	-150	-138.75	-168.75
1138	135	-97.5	-26.25	-67.5	-86.25	-161.25	-153.75	-180
1139	146.25	-108.75	-33.75	-67.5	-86.25	-165	-157.5	-180
1140	198.75	-116.25	-45	-82.5	-97.5	-183.75	-168.75	-191.25
1141	228.75	-123.75	-60	-93.75	-112.5	-195	-180	-206.25
1142	191.25	-123.75	-48.75	-86.25	-105	-183.75	-165	-183.75
1143	165	-116.25	-30	-71.25	-90	-161.25	-138.75	-157.5
1144	172.5	-116.25	-30	-71.25	-86.25	-157.5	-135	-157.5
1145	168.75	-142.5	-26.25	-67.5	-90	-157.5	-138.75	-157.5
1146	168.75	-131.25	-11.25	-60	-82.5	-146.25	-123.75	-150
1147	135	-97.5	-3.75	-52.5	-71.25	-135	-112.5	-138.75
1148	108.75	-90	-11.25	-60	-71.25	-135	-120	-146.25
1149	112.5	-97.5	-22.5	-71.25	-75	-142.5	-127.5	-150
1150	123.75	-97.5	-26.25	-71.25	-78.75	-142.5	-131.25	-157.5
1151	165	-71.25	-30	-71.25	-78.75	-146.25	-135	-161.25
1152	221.25	-75	-45	-93.75	-105	-176.25	-157.5	-176.25
1153	210	-116.25	-45	-97.5	-112.5	-183.75	-161.25	-180
1154	150	-146.25	-30	-75	-93.75	-168.75	-150	-172.5
1155	172.5	-123.75	-30	-75	-93.75	-165	-150	-176.25
1156	198.75	-101.25	-33.75	-82.5	-101.25	-172.5	-153.75	-176.25
1157	165	-127.5	-41.25	-90	-108.75	-180	-161.25	-183.75
1158	135	-138.75	-33.75	-86.25	-105	-176.25	-157.5	-183.75
1159	123.75	-93.75	-26.25	-78.75	-97.5	-165	-150	-176.25
1160	105	-67.5	-37.5	-90	-101.25	-161.25	-150	-176.25
1161	97.5	-75	-48.75	-105	-112.5	-172.5	-161.25	-183.75
1162	120	-67.5	-48.75	-101.25	-108.75	-168.75	-157.5	-180
1163	157.5	-86.25	-41.25	-93.75	-101.25	-161.25	-150	-172.5
1164	228.75	-105	-48.75	-105	-108.75	-172.5	-157.5	-180
1165	266.25	-108.75	-52.5	-108.75	-116.25	-183.75	-165	-180
1166	221.25	-142.5	-41.25	-93.75	-101.25	-172.5	-150	-165
1167	198.75	-168.75	-30	-90	-97.5	-165	-142.5	-157.5
1168	206.25	-165	-33.75	-101.25	-112.5	-172.5	-150	-165
1169	176.25	-150	-33.75	-101.25	-112.5	-176.25	-150	-168.75
1170	135	-127.5	-22.5	-78.75	-86.25	-153.75	-127.5	-146.25
1171	90	-116.25	-11.25	-75	-82.5	-146.25	-123.75	-142.5
1172	82.5	-108.75	-26.25	-90	-101.25	-161.25	-142.5	-161.25
1173	97.5	-112.5	-41.25	-105	-108.75	-168.75	-153.75	-172.5
1174	112.5	-127.5	-45	-108.75	-116.25	-176.25	-157.5	-172.5
1175	138.75	-120	-45	-105	-116.25	-176.25	-153.75	-165
1176	198.75	-120	-52.5	-108.75	-120	-187.5	-161.25	-172.5
1177	236.25	-135	-56.25	-120	-131.25	-195	-168.75	-180
1178	183.75	-168.75	-60	-127.5	-138.75	-198.75	-165	-180
1179	131.25	-198.75	-60	-123.75	-135	-198.75	-168.75	-183.75
1180	108.75	-191.25	-56.25	-120	-127.5	-198.75	-172.5	-187.5
1181	120	-161.25	-52.5	-116.25	-131.25	-202.5	-176.25	-191.25
1182	161.25	-116.25	-45	-108.75	-127.5	-195	-172.5	-187.5
1183	157.5	-97.5	-33.75	-105	-120	-183.75	-165	-180
1184	105	-90	-26.25	-97.5	-105	-168.75	-153.75	-172.5
1185	82.5	-78.75	-41.25	-108.75	-116.25	-176.25	-161.25	-176.25
1186	105	-67.5	-60	-131.25	-138.75	-191.25	-172.5	-183.75
1187	142.5	-52.5	-71.25	-142.5	-146.25	-198.75	-180	-191.25
1188	206.25	-78.75	-86.25	-150	-157.5	-217.5	-195	-210
1189	240	-135	-93.75	-161.25	-172.5	-232.5	-210	-221.25
1190	191.25	-161.25	-71.25	-138.75	-153.75	-217.5	-191.25	-206.25
1191	142.5	-157.5	-56.25	-123.75	-135	-206.25	-180	-195
1192	127.5	-157.5	-60	-135	-146.25	-213.75	-187.5	-198.75
1193	150	-127.5	-56.25	-131.25	-146.25	-210	-183.75	-191.25
1194	157.5	-101.25	-45	-116.25	-131.25	-198.75	-172.5	-183.75
1195	116.25	-90	-41.25	-112.5	-127.5	-191.25	-168.75	-187.5
1196	97.5	-75	-56.25	-123.75	-135	-191.25	-172.5	-191.25
1197	108.75	-82.5	-63.75	-131.25	-142.5	-195	-176.25	-195
1198	112.5	-97.5	-60	-135	-142.5	-202.5	-183.75	-202.5
1199	135	-93.75	-56.25	-127.5	-135	-195	-180	-198.75
1200	202.5	-108.75	-63.75	-131.25	-138.75	-202.5	-180	-195
1201	206.25	-176.25	-75	-146.25	-157.5	-217.5	-191.25	-206.25
1202	138.75	-213.75	-78.75	-153.75	-165	-225	-191.25	-206.25
1203	135	-168.75	-67.5	-146.25	-153.75	-213.75	-180	-191.25
1204	153.75	-131.25	-75	-150	-157.5	-217.5	-191.25	-206.25
1205	120	-153.75	-93.75	-168.75	-176.25	-240	-213.75	-228.75
1206	86.25	-180	-78.75	-153.75	-161.25	-225	-198.75	-213.75
1207	78.75	-172.5	-48.75	-127.5	-135	-195	-168.75	-187.5
1208	71.25	-135	-45	-127.5	-135	-195	-168.75	-187.5
1209	75	-120	-63.75	-146.25	-153.75	-213.75	-191.25	-206.25
1210	112.5	-105	-75	-146.25	-153.75	-213.75	-191.25	-202.5
1211	146.25	-97.5	-75	-142.5	-150	-210	-187.5	-198.75
1212	187.5	-123.75	-82.5	-153.75	-161.25	-221.25	-198.75	-206.25
1213	236.25	-138.75	-86.25	-161.25	-172.5	-236.25	-210	-213.75
1214	206.25	-157.5	-82.5	-150	-165	-232.5	-202.5	-210
1215	172.5	-153.75	-71.25	-142.5	-153.75	-221.25	-191.25	-202.5
1216	142.5	-168.75	-67.5	-153.75	-165	-225	-195	-206.25
1217	105	-217.5	-71.25	-150	-161.25	-225	-191.25	-206.25
1218	112.5	-198.75	-63.75	-135	-142.5	-210	-176.25	-191.25
1219	108.75	-131.25	-56.25	-127.5	-135	-198.75	-168.75	-180
1220	71.25	-120	-56.25	-135	-138.75	-195	-168.75	-187.5
1221	82.5	-108.75	-67.5	-142.5	-150	-202.5	-183.75	-206.25
1222	131.25	-67.5	-71.25	-146.25	-153.75	-206.25	-187.5	-210
1223	150	-75	-75	-153.75	-157.5	-210	-191.25	-210
1224	165	-146.25	-90	-165	-172.5	-232.5	-210	-225
1225	183.75	-210	-93.75	-168.75	-176.25	-240	-217.5	-228.75
1226	187.5	-191.25	-78.75	-146.25	-153.75	-217.5	-187.5	-202.5
1227	176.25	-135	-63.75	-131.25	-138.75	-195	-168.75	-183.75
1228	168.75	-123.75	-63.75	-138.75	-150	-210	-180	-195
1229	187.5	-123.75	-71.25	-150	-165	-221.25	-191.25	-206.25
1230	146.25	-138.75	-63.75	-150	-165	-213.75	-183.75	-198.75
1231	71.25	-150	-45	-127.5	-138.75	-191.25	-161.25	-183.75
1232	45	-138.75	-37.5	-120	-127.5	-180	-153.75	-176.25
1233	78.75	-127.5	-52.5	-135	-138.75	-195	-172.5	-191.25
1234	120	-120	-60	-138.75	-146.25	-202.5	-183.75	-198.75
1235	138.75	-101.25	-60	-135	-142.5	-202.5	-187.5	-202.5
1236	202.5	-90	-82.5	-150	-161.25	-225	-210	-221.25
1237	247.5	-90	-82.5	-150	-165	-232.5	-213.75	-221.25
1238	191.25	-97.5	-48.75	-127.5	-142.5	-210	-183.75	-195
1239	123.75	-101.25	-30	-116.25	-127.5	-191.25	-165	-180
1240	127.5	-93.75	-30	-120	-131.25	-191.25	-165	-180
1241	131.25	-112.5	-26.25	-112.5	-131.25	-187.5	-161.25	-183.75
1242	105	-123.75	-15	-101.25	-123.75	-183.75	-157.5	-183.75
1243	71.25	-101.25	0	-90	-108.75	-172.5	-150	-176.25
1244	52.5	-86.25	7.5	-86.25	-108.75	-172.5	-150	-168.75
1245	67.5	-101.25	0	-93.75	-116.25	-180	-157.5	-176.25
1246	123.75	-90	-3.75	-90	-108.75	-176.25	-157.5	-176.25
1247	165	-52.5	-11.25	-93.75	-112.5	-176.25	-161.25	-176.25
1248	210	-22.5	-22.5	-105	-127.5	-187.5	-168.75	-183.75
1249	225	-26.25	-30	-116.25	-138.75	-202.5	-183.75	-195
1250	168.75	-45	-22.5	-116.25	-138.75	-206.25	-183.75	-206.25
1251	138.75	-60	-7.5	-101.25	-127.5	-195	-172.5	-202.5
1252	153.75	-67.5	15	-82.5	-108.75	-172.5	-150	-180
1253	150	-90	30	-67.5	-90	-153.75	-135	-157.5
1254	101.25	-116.25	26.25	-63.75	-82.5	-142.5	-123.75	-153.75
1255	86.25	-75	22.5	-60	-75	-131.25	-112.5	-142.5
1256	105	-33.75	15	-56.25	-67.5	-120	-105	-131.25
1257	127.5	-37.5	-15	-78.75	-86.25	-138.75	-123.75	-146.25
1258	146.25	-45	-45	-97.5	-97.5	-146.25	-135	-153.75
1259	168.75	-22.5	-60	-97.5	-97.5	-146.25	-131.25	-150
1260	217.5	-22.5	-90	-116.25	-112.5	-165	-150	-168.75
1261	243.75	-63.75	-116.25	-138.75	-138.75	-187.5	-168.75	-191.25
1262	217.5	-78.75	-105	-127.5	-127.5	-180	-157.5	-183.75
1263	195	-71.25	-90	-120	-116.25	-168.75	-146.25	-172.5
1264	198.75	-45	-86.25	-116.25	-112.5	-157.5	-135	-157.5
1265	187.5	-30	-97.5	-138.75	-131.25	-168.75	-142.5	-168.75
1266	153.75	-30	-101.25	-146.25	-138.75	-176.25	-150	-172.5
1267	123.75	-26.25	-82.5	-127.5	-120	-165	-138.75	-157.5
1268	108.75	-52.5	-78.75	-127.5	-123.75	-168.75	-142.5	-161.25
1269	116.25	-93.75	-82.5	-131.25	-127.5	-172.5	-146.25	-161.25
1270	138.75	-105	-71.25	-123.75	-120	-168.75	-146.25	-157.5
1271	176.25	-78.75	-63.75	-112.5	-105	-157.5	-138.75	-150
1272	243.75	-71.25	-82.5	-127.5	-123.75	-180	-161.25	-176.25
1273	240	-108.75	-90	-142.5	-146.25	-206.25	-183.75	-195
1274	161.25	-142.5	-86.25	-142.5	-150	-210	-183.75	-198.75
1275	161.25	-116.25	-82.5	-150	-161.25	-217.5	-187.5	-206.25
1276	202.5	-90	-93.75	-161.25	-172.5	-228.75	-198.75	-217.5
1277	195	-82.5	-101.25	-165	-172.5	-228.75	-202.5	-217.5
1278	165	-75	-86.25	-153.75	-157.5	-213.75	-183.75	-198.75
1279	131.25	-75	-67.5	-131.25	-135	-191.25	-168.75	-191.25
1280	93.75	-97.5	-63.75	-131.25	-131.25	-187.5	-168.75	-191.25
1281	75	-127.5	-78.75	-146.25	-146.25	-198.75	-180	-202.5
1282	67.5	-153.75	-86.25	-157.5	-153.75	-202.5	-187.5	-213.75
1283	71.25	-161.25	-86.25	-161.25	-153.75	-210	-191.25	-217.5
1284	153.75	-157.5	-101.25	-168.75	-165	-217.5	-195	-213.75
1285	210	-195	-105	-172.5	-172.5	-225	-198.75	-213.75
1286	161.25	-221.25	-82.5	-153.75	-157.5	-213.75	-187.5	-202.5
1287	127.5	-191.25	-78.75	-153.75	-153.75	-210	-183.75	-202.5
1288	131.25	-183.75	-86.25	-161.25	-165	-221.25	-191.25	-206.25
1289	123.75	-210	-86.25	-165	-165	-217.5	-191.25	-210
1290	105	-195	-75	-150	-146.25	-202.5	-180	-202.5
1291	63.75	-165	-67.5	-142.5	-142.5	-198.75	-180	-206.25
1292	37.5	-146.25	-75	-153.75	-153.75	-210	-195	-221.25
1293	52.5	-116.25	-93.75	-168.75	-165	-221.25	-210	-232.5
1294	60	-108.75	-112.5	-187.5	-180	-236.25	-221.25	-243.75
1295	105	-93.75	-112.5	-187.5	-183.75	-240	-221.25	-240
1296	225	-67.5	-116.25	-183.75	-180	-243.75	-225	-236.25
1297	251.25	-105	-131.25	-195	-195	-262.5	-236.25	-243.75
1298	153.75	-168.75	-123.75	-187.5	-187.5	-258.75	-232.5	-247.5
1299	101.25	-180	-108.75	-176.25	-176.25	-243.75	-221.25	-240
1300	138.75	-168.75	-90	-161.25	-157.5	-221.25	-198.75	-221.25
1301	153.75	-172.5	-75	-142.5	-142.5	-206.25	-187.5	-210
1302	93.75	-183.75	-67.5	-146.25	-142.5	-202.5	-183.75	-210
1303	60	-157.5	-60	-138.75	-135	-191.25	-172.5	-198.75
1304	48.75	-153.75	-63.75	-131.25	-127.5	-191.25	-172.5	-195
1305	60	-176.25	-75	-142.5	-138.75	-195	-180	-202.5
1306	101.25	-176.25	-82.5	-153.75	-153.75	-206.25	-191.25	-213.75
1307	135	-168.75	-82.5	-146.25	-153.75	-217.5	-206.25	-228.75
1308	157.5	-210	-67.5	-123.75	-161.25	-243.75	-240	-262.5
1309	180	-255	-15	-71.25	-150	-258.75	-262.5	-285
1310	180	-270	60	7.5	-123.75	-262.5	-277.5	-311.25
1311	176.25	-273.75	135	82.5	-105	-281.25	-307.5	-345
1312	161.25	-273.75	195	135	-97.5	-296.25	-330	-367.5
1313	153.75	-243.75	247.5	202.5	-60	-277.5	-322.5	-360
1314	183.75	-165	303.75	307.5	26.25	-213.75	-270	-315
1315	198.75	-75	352.5	397.5	112.5	-138.75	-202.5	-258.75
1316	210	-7.5	382.5	476.25	191.25	-63.75	-135	-198.75
1317	273.75	60	397.5	547.5	273.75	18.75	-63.75	-138.75
1318	356.25	142.5	390	585	330	82.5	3.75	-71.25
1319	397.5	225	390	641.25	405	168.75	93.75	11.25
1320	498.75	285	382.5	727.5	517.5	288.75	210	112.5
1321	577.5	352.5	352.5	772.5	626.25	420	341.25	225
1322	558.75	468.75	303.75	738.75	697.5	543.75	483.75	360
1323	562.5	611.25	217.5	663.75	768.75	682.5	641.25	510
1324	585	753.75	172.5	652.5	888.75	862.5	828.75	682.5
1325	600	930	142.5	660	1008.75	1042.5	1016.25	851.25
1326	611.25	1162.5	11.25	558.75	1061.25	1196.25	1207.5	1042.5
1327	592.5	1361.25	-187.5	371.25	1080	1346.25	1402.5	1241.25
1328	562.5	1455	-371.25	195	1110	1496.25	1575	1402.5
1329	577.5	1537.5	-536.25	-26.25	1125	1627.5	1721.25	1522.5
1330	581.25	1586.25	-626.25	-187.5	1155	1747.5	1837.5	1597.5
1331	521.25	1488.75	-603.75	-206.25	1226.25	1841.25	1897.5	1605
1332	498.75	1380	-622.5	-258.75	1252.5	1878.75	1905	1563.75
1333	487.5	1301.25	-716.25	-416.25	1177.5	1822.5	1837.5	1481.25
1334	405	1132.5	-772.5	-562.5	1023.75	1638.75	1650	1308.75
1335	288.75	900	-742.5	-648.75	817.5	1342.5	1357.5	1057.5
1336	180	678.75	-693.75	-738.75	540	975	1016.25	791.25
1337	112.5	513.75	-660	-847.5	217.5	581.25	671.25	540
1338	41.25	378.75	-648.75	-960	-93.75	221.25	356.25	311.25
1339	-60	225	-652.5	-1020	-292.5	-18.75	123.75	127.5
1340	-101.25	112.5	-626.25	-982.5	-337.5	-123.75	-11.25	-7.5
1341	-86.25	33.75	-581.25	-896.25	-315	-153.75	-90	-105
1342	-52.5	-15	-540	-810	-273.75	-150	-116.25	-146.25
1343	-33.75	-18.75	-536.25	-735	-225	-120	-93.75	-138.75
1344	30	-11.25	-532.5	-660	-195	-101.25	-71.25	-123.75
1345	105	-26.25	-506.25	-600	-206.25	-120	-82.5	-127.5
1346	112.5	-41.25	-453.75	-532.5	-202.5	-127.5	-82.5	-120
1347	90	-63.75	-408.75	-461.25	-180	-123.75	-82.5	-116.25
1348	97.5	-78.75	-367.5	-390	-150	-120	-82.5	-120
1349	112.5	-52.5	-318.75	-311.25	-105	-90	-60	-101.25
1350	101.25	-30	-277.5	-247.5	-60	-56.25	-37.5	-82.5
1351	101.25	3.75	-232.5	-195	-26.25	-33.75	-22.5	-78.75
1352	116.25	26.25	-187.5	-142.5	3.75	-18.75	-18.75	-78.75
1353	120	3.75	-161.25	-112.5	15	-18.75	-26.25	-90
1354	142.5	-11.25	-135	-90	18.75	-22.5	-30	-90
1355	168.75	3.75	-105	-71.25	22.5	-26.25	-33.75	-93.75
1356	213.75	0	-97.5	-67.5	11.25	-45	-52.5	-105
1357	243.75	-48.75	-97.5	-63.75	0	-63.75	-71.25	-123.75
1358	217.5	-93.75	-93.75	-60	-3.75	-78.75	-86.25	-135
1359	168.75	-97.5	-75	-48.75	0	-75	-78.75	-131.25
1360	165	-75	-75	-48.75	-3.75	-75	-78.75	-131.25
1361	168.75	-63.75	-82.5	-56.25	-18.75	-90	-90	-138.75
1362	138.75	-45	-63.75	-48.75	-15	-82.5	-86.25	-142.5
1363	101.25	-22.5	-37.5	-26.25	3.75	-63.75	-71.25	-138.75
1364	86.25	-18.75	-26.25	-15	18.75	-56.25	-67.5	-135
1365	108.75	-26.25	-37.5	-15	15	-60	-75	-138.75
1366	146.25	-37.5	-56.25	-18.75	11.25	-71.25	-93.75	-150
1367	157.5	-67.5	-75	-37.5	-11.25	-93.75	-112.5	-165
1368	198.75	-90	-82.5	-45	-26.25	-108.75	-120	-168.75
1369	247.5	-105	-78.75	-48.75	-30	-112.5	-123.75	-168.75
1370	221.25	-131.25	-71.25	-37.5	-26.25	-112.5	-120	-165
1371	187.5	-127.5	-60	-26.25	-18.75	-105	-108.75	-157.5
1372	168.75	-108.75	-56.25	-22.5	-15	-101.25	-108.75	-157.5
1373	176.25	-90	-56.25	-22.5	-11.25	-97.5	-105	-153.75
1374	168.75	-71.25	-48.75	-18.75	-7.5	-86.25	-90	-135
1375	116.25	-48.75	-41.25	0	11.25	-71.25	-78.75	-131.25
1376	71.25	-30	-33.75	0	11.25	-67.5	-82.5	-142.5
1377	78.75	-33.75	-52.5	-18.75	-11.25	-86.25	-105	-165
1378	127.5	-22.5	-63.75	-26.25	-15	-97.5	-116.25	-172.5
1379	153.75	7.5	-67.5	-26.25	-18.75	-101.25	-116.25	-168.75
1380	191.25	3.75	-86.25	-45	-37.5	-120	-131.25	-183.75
1381	228.75	-22.5	-90	-41.25	-33.75	-120	-127.5	-176.25
1382	225	-37.5	-63.75	-7.5	0	-86.25	-90	-138.75
1383	195	-56.25	-41.25	15	18.75	-67.5	-71.25	-123.75
1384	195	-82.5	-33.75	22.5	22.5	-63.75	-71.25	-120
1385	191.25	-108.75	-37.5	22.5	22.5	-63.75	-71.25	-120
1386	172.5	-108.75	-26.25	30	30	-56.25	-60	-116.25
1387	168.75	-82.5	-11.25	48.75	45	-37.5	-45	-97.5
1388	153.75	-63.75	-11.25	52.5	56.25	-26.25	-41.25	-86.25
1389	150	-56.25	-26.25	41.25	52.5	-30	-48.75	-97.5
1390	165	-45	-37.5	33.75	45	-37.5	-56.25	-105
1391	191.25	-37.5	-45	37.5	45	-37.5	-52.5	-101.25
1392	243.75	-41.25	-63.75	18.75	26.25	-52.5	-67.5	-116.25
1393	285	-41.25	-71.25	15	18.75	-63.75	-75	-123.75
1394	243.75	-71.25	-56.25	30	30	-60	-67.5	-116.25
1395	210	-71.25	-45	37.5	33.75	-60	-71.25	-120
1396	198.75	-52.5	-48.75	30	26.25	-67.5	-78.75	-127.5
1397	202.5	-41.25	-48.75	37.5	33.75	-63.75	-75	-123.75
1398	187.5	-30	-45	41.25	41.25	-52.5	-67.5	-120
1399	165	-15	-41.25	48.75	56.25	-37.5	-48.75	-105
1400	168.75	3.75	-41.25	52.5	63.75	-18.75	-37.5	-93.75
1401	198.75	45	-45	56.25	67.5	-15	-33.75	-90
1402	187.5	33.75	-67.5	41.25	52.5	-30	-48.75	-105
1403	176.25	3.75	-78.75	30	41.25	-45	-63.75	-112.5
1404	247.5	-3.75	-75	37.5	41.25	-48.75	-60	-105
1405	333.75	-18.75	-67.5	48.75	52.5	-41.25	-45	-90
1406	311.25	-48.75	-45	75	75	-22.5	-26.25	-75
1407	247.5	-82.5	-37.5	86.25	86.25	-11.25	-18.75	-71.25
1408	232.5	-86.25	-30	86.25	86.25	-11.25	-18.75	-75
1409	225	-75	-33.75	82.5	78.75	-11.25	-18.75	-75
1410	198.75	-56.25	-30	93.75	93.75	3.75	-3.75	-60
1411	180	-26.25	-18.75	112.5	116.25	30	18.75	-45
1412	165	-3.75	-18.75	120	123.75	41.25	22.5	-45
1413	183.75	7.5	-30	105	116.25	33.75	11.25	-60
1414	221.25	15	-48.75	90	101.25	18.75	3.75	-63.75
1415	232.5	30	-60	90	101.25	18.75	3.75	-63.75
1416	266.25	33.75	-75	82.5	90	3.75	-11.25	-75
1417	292.5	0	-90	60	67.5	-22.5	-33.75	-93.75
1418	262.5	-33.75	-93.75	63.75	63.75	-26.25	-30	-90
1419	258.75	-3.75	-71.25	86.25	86.25	-3.75	-3.75	-67.5
1420	300	52.5	-52.5	108.75	108.75	18.75	11.25	-48.75
1421	322.5	63.75	-52.5	112.5	112.5	22.5	15	-48.75
1422	288.75	26.25	-56.25	112.5	116.25	30	26.25	-37.5
1423	228.75	3.75	-45	123.75	131.25	48.75	41.25	-22.5
1424	228.75	37.5	-37.5	135	142.5	60	48.75	-22.5
1425	251.25	75	-52.5	127.5	135	56.25	41.25	-22.5
1426	255	90	-67.5	116.25	123.75	45	33.75	-26.25
1427	258.75	82.5	-75	116.25	120	37.5	22.5	-37.5
1428	326.25	56.25	-78.75	112.5	112.5	26.25	11.25	-45
1429	356.25	18.75	-75	112.5	108.75	22.5	11.25	-45
1430	303.75	18.75	-60	127.5	123.75	33.75	26.25	-30
1431	292.5	71.25	-56.25	131.25	127.5	37.5	33.75	-26.25
1432	318.75	93.75	-60	123.75	120	33.75	30	-30
1433	311.25	78.75	-60	123.75	116.25	30	26.25	-33.75
1434	288.75	60	-60	123.75	116.25	33.75	30	-30
1435	273.75	45	-41.25	146.25	135	52.5	48.75	-18.75
1436	258.75	52.5	-30	157.5	150	67.5	60	-7.5
1437	262.5	86.25	-41.25	150	142.5	63.75	60	-7.5
1438	281.25	63.75	-48.75	142.5	142.5	67.5	63.75	-3.75
1439	288.75	15	-60	135	135	60	56.25	-11.25
1440	330	22.5	-71.25	120	116.25	41.25	37.5	-26.25
1441	378.75	37.5	-90	97.5	90	15	15	-45
1442	341.25	15	-78.75	101.25	90	15	18.75	-37.5
1443	292.5	-7.5	-56.25	120	112.5	37.5	45	-11.25
1444	311.25	-7.5	-41.25	138.75	127.5	52.5	63.75	7.5
1445	326.25	11.25	-37.5	138.75	123.75	48.75	60	3.75
1446	315	48.75	-41.25	131.25	112.5	37.5	48.75	-7.5
1447	277.5	67.5	-41.25	123.75	108.75	37.5	48.75	-7.5
1448	258.75	82.5	-37.5	120	105	37.5	48.75	-3.75
1449	281.25	93.75	-41.25	116.25	93.75	30	41.25	-11.25
1450	300	90	-45	116.25	97.5	30	37.5	-18.75
1451	303.75	90	-52.5	116.25	97.5	26.25	33.75	-22.5
1452	348.75	78.75	-60	101.25	78.75	7.5	18.75	-33.75
1453	401.25	60	-60	93.75	67.5	-3.75	11.25	-37.5
1454	390	56.25	-45	105	71.25	-3.75	15	-30
1455	367.5	93.75	-41.25	101.25	67.5	-7.5	15	-30
1456	360	120	-33.75	101.25	67.5	-3.75	18.75	-22.5
1457	348.75	101.25	-33.75	105	63.75	-3.75	18.75	-18.75
1458	296.25	48.75	-30	93.75	52.5	-11.25	11.25	-33.75
1459	236.25	11.25	-33.75	86.25	48.75	-15	3.75	-45
1460	236.25	33.75	-26.25	105	71.25	7.5	18.75	-30
1461	243.75	41.25	-18.75	108.75	75	11.25	22.5	-26.25
1462	251.25	48.75	-7.5	116.25	78.75	11.25	22.5	-26.25
1463	281.25	71.25	0	112.5	75	11.25	26.25	-22.5
1464	326.25	48.75	-18.75	86.25	45	-15	0	-45
1465	345	3.75	-41.25	67.5	26.25	-45	-26.25	-71.25
1466	292.5	-11.25	-30	63.75	22.5	-48.75	-30	-75
1467	251.25	-15	-11.25	71.25	22.5	-45	-26.25	-78.75
1468	247.5	-33.75	-3.75	78.75	33.75	-41.25	-26.25	-82.5
1469	228.75	-52.5	3.75	82.5	30	-41.25	-22.5	-75
1470	221.25	-22.5	15	82.5	33.75	-37.5	-18.75	-67.5
1471	213.75	45	18.75	90	41.25	-33.75	-18.75	-71.25
1472	195	93.75	18.75	86.25	45	-33.75	-26.25	-78.75
1473	191.25	105	0	63.75	22.5	-56.25	-52.5	-105
1474	198.75	86.25	-7.5	48.75	11.25	-75	-78.75	-127.5
1475	206.25	67.5	-11.25	37.5	0	-82.5	-86.25	-135
1476	247.5	45	-26.25	22.5	-15	-93.75	-93.75	-142.5
1477	266.25	22.5	-37.5	11.25	-26.25	-105	-101.25	-150
1478	202.5	-3.75	-37.5	3.75	-30	-108.75	-97.5	-138.75
1479	138.75	-52.5	-22.5	15	-15	-90	-78.75	-123.75
1480	161.25	-93.75	3.75	33.75	3.75	-75	-60	-116.25
1481	202.5	-112.5	33.75	52.5	22.5	-56.25	-45	-97.5
1482	191.25	-108.75	52.5	63.75	30	-52.5	-37.5	-86.25
1483	131.25	-86.25	48.75	56.25	26.25	-60	-48.75	-101.25
1484	105	-52.5	37.5	41.25	18.75	-71.25	-67.5	-123.75
1485	150	3.75	26.25	30	7.5	-75	-78.75	-131.25
1486	165	18.75	22.5	22.5	0	-82.5	-86.25	-138.75
1487	161.25	3.75	22.5	26.25	7.5	-78.75	-86.25	-138.75
1488	198.75	-15	0	0	-15	-101.25	-101.25	-153.75
1489	213.75	-48.75	-22.5	-26.25	-45	-135	-127.5	-176.25
1490	168.75	-71.25	-22.5	-33.75	-48.75	-138.75	-131.25	-183.75
1491	146.25	-67.5	-11.25	-26.25	-41.25	-123.75	-120	-176.25
1492	150	-82.5	-3.75	-18.75	-37.5	-123.75	-120	-176.25
1493	138.75	-108.75	-3.75	-18.75	-37.5	-120	-116.25	-172.5
1494	116.25	-108.75	3.75	-15	-33.75	-116.25	-108.75	-157.5
1495	71.25	-108.75	18.75	-7.5	-26.25	-108.75	-101.25	-150
1496	63.75	-93.75	26.25	0	-15	-93.75	-93.75	-146.25
1497	127.5	-45	30	3.75	-7.5	-86.25	-93.75	-146.25
1498	146.25	-48.75	7.5	-26.25	-33.75	-112.5	-116.25	-172.5
1499	90	-93.75	-22.5	-52.5	-63.75	-142.5	-146.25	-195
1500	90	-120	-37.5	-67.5	-75	-157.5	-161.25	-202.5
1501	138.75	-120	-33.75	-63.75	-71.25	-157.5	-157.5	-198.75
1502	131.25	-105	-26.25	-60	-67.5	-150	-146.25	-191.25
1503	97.5	-105	-11.25	-63.75	-75	-146.25	-138.75	-183.75
1504	105	-105	-11.25	-60	-75	-146.25	-138.75	-183.75
1505	112.5	-101.25	-18.75	-56.25	-67.5	-146.25	-142.5	-195
1506	93.75	-97.5	-18.75	-56.25	-63.75	-146.25	-142.5	-198.75
1507	48.75	-90	-11.25	-52.5	-60	-142.5	-142.5	-195
1508	30	-48.75	-3.75	-48.75	-56.25	-138.75	-142.5	-191.25
1509	71.25	-3.75	-11.25	-60	-63.75	-142.5	-150	-195
1510	93.75	-15	-33.75	-75	-78.75	-153.75	-161.25	-210
1511	93.75	-22.5	-33.75	-78.75	-82.5	-150	-157.5	-206.25
1512	120	-33.75	-30	-78.75	-82.5	-150	-157.5	-202.5
1513	161.25	-71.25	-48.75	-93.75	-101.25	-180	-180	-221.25
1514	127.5	-101.25	-52.5	-97.5	-105	-183.75	-180	-228.75
1515	90	-101.25	-33.75	-75	-82.5	-161.25	-161.25	-210
1516	86.25	-108.75	-15	-60	-71.25	-150	-150	-195
1517	78.75	-138.75	-3.75	-56.25	-67.5	-146.25	-146.25	-187.5
1518	75	-138.75	3.75	-45	-56.25	-138.75	-142.5	-183.75
1519	63.75	-116.25	11.25	-33.75	-41.25	-123.75	-127.5	-172.5
1520	37.5	-116.25	11.25	-37.5	-45	-116.25	-123.75	-168.75
1521	48.75	-101.25	0	-45	-48.75	-116.25	-123.75	-168.75
1522	78.75	-86.25	-3.75	-41.25	-45	-116.25	-123.75	-172.5
1523	90	-67.5	0	-33.75	-41.25	-116.25	-127.5	-176.25
1524	127.5	-71.25	-11.25	-45	-48.75	-127.5	-138.75	-183.75
1525	138.75	-161.25	-26.25	-63.75	-75	-153.75	-157.5	-198.75
1526	97.5	-213.75	-22.5	-63.75	-75	-153.75	-153.75	-195
1527	90	-168.75	-11.25	-45	-56.25	-138.75	-138.75	-180
1528	127.5	-97.5	-7.5	-45	-52.5	-127.5	-127.5	-168.75
1529	142.5	-60	-11.25	-48.75	-56.25	-123.75	-123.75	-168.75
1530	108.75	-75	-15	-48.75	-52.5	-123.75	-127.5	-180
1531	52.5	-93.75	-7.5	-37.5	-41.25	-108.75	-116.25	-172.5
1532	26.25	-82.5	0	-33.75	-33.75	-101.25	-108.75	-165
1533	45	-63.75	-7.5	-37.5	-33.75	-105	-112.5	-168.75
1534	82.5	-56.25	-18.75	-45	-41.25	-112.5	-120	-176.25
1535	78.75	-63.75	-18.75	-48.75	-45	-116.25	-123.75	-172.5
1536	116.25	-71.25	-30	-60	-56.25	-131.25	-135	-180
1537	161.25	-93.75	-33.75	-63.75	-67.5	-146.25	-150	-191.25
1538	123.75	-127.5	-18.75	-52.5	-60	-138.75	-138.75	-180
1539	86.25	-131.25	-7.5	-41.25	-45	-127.5	-127.5	-168.75
1540	116.25	-120	-3.75	-37.5	-41.25	-120	-120	-161.25
1541	142.5	-112.5	-3.75	-33.75	-37.5	-120	-120	-157.5
1542	127.5	-82.5	0	-30	-33.75	-116.25	-116.25	-157.5
1543	71.25	-67.5	3.75	-33.75	-30	-108.75	-112.5	-157.5
1544	37.5	-52.5	3.75	-41.25	-33.75	-105	-108.75	-157.5
1545	67.5	-18.75	-15	-48.75	-41.25	-112.5	-116.25	-165
1546	105	-26.25	-33.75	-56.25	-45	-120	-123.75	-172.5
1547	120	-48.75	-33.75	-56.25	-48.75	-120	-123.75	-172.5
1548	153.75	-45	-33.75	-60	-52.5	-123.75	-127.5	-176.25
1549	172.5	-75	-48.75	-75	-67.5	-142.5	-142.5	-187.5
1550	135	-112.5	-48.75	-75	-63.75	-142.5	-138.75	-183.75
1551	93.75	-108.75	-18.75	-45	-37.5	-116.25	-112.5	-161.25
1552	78.75	-101.25	-11.25	-37.5	-30	-108.75	-105	-153.75
1553	63.75	-116.25	-22.5	-56.25	-48.75	-123.75	-120	-165
1554	45	-120	-37.5	-71.25	-63.75	-135	-135	-180
1555	48.75	-75	-22.5	-60	-48.75	-116.25	-116.25	-161.25
1556	45	-52.5	-11.25	-45	-30	-101.25	-101.25	-146.25
1557	41.25	-67.5	-15	-41.25	-26.25	-101.25	-105	-150
1558	75	-67.5	-11.25	-37.5	-26.25	-97.5	-105	-150
1559	105	-41.25	-3.75	-33.75	-18.75	-93.75	-101.25	-142.5
1560	168.75	-15	-18.75	-52.5	-41.25	-116.25	-116.25	-157.5
1561	217.5	-41.25	-41.25	-75	-63.75	-138.75	-135	-168.75
1562	172.5	-86.25	-37.5	-67.5	-60	-135	-127.5	-157.5
1563	123.75	-93.75	-30	-63.75	-52.5	-127.5	-116.25	-150
1564	123.75	-71.25	-37.5	-67.5	-56.25	-131.25	-120	-157.5
1565	131.25	-63.75	-37.5	-71.25	-60	-131.25	-123.75	-157.5
1566	131.25	-60	-18.75	-56.25	-45	-120	-108.75	-146.25
1567	93.75	-37.5	3.75	-33.75	-26.25	-101.25	-93.75	-131.25
1568	41.25	-48.75	3.75	-33.75	-22.5	-93.75	-90	-127.5
1569	52.5	-45	-3.75	-45	-30	-97.5	-93.75	-131.25
1570	93.75	-30	-15	-52.5	-41.25	-108.75	-108.75	-150
1571	105	-45	-30	-63.75	-48.75	-123.75	-127.5	-165
1572	127.5	-75	-41.25	-78.75	-63.75	-142.5	-142.5	-176.25
1573	153.75	-123.75	-45	-82.5	-75	-150	-146.25	-176.25
1574	131.25	-142.5	-37.5	-75	-71.25	-146.25	-138.75	-172.5
1575	78.75	-123.75	-30	-71.25	-63.75	-138.75	-131.25	-168.75
1576	67.5	-116.25	-30	-75	-71.25	-138.75	-131.25	-168.75
1577	75	-116.25	-37.5	-78.75	-75	-142.5	-127.5	-165
1578	71.25	-97.5	-33.75	-78.75	-71.25	-142.5	-127.5	-165
1579	33.75	-63.75	-30	-75	-71.25	-138.75	-123.75	-168.75
1580	15	-45	-30	-75	-67.5	-131.25	-123.75	-165
1581	41.25	-52.5	-30	-75	-63.75	-131.25	-123.75	-161.25
1582	93.75	-60	-26.25	-67.5	-60	-127.5	-120	-153.75
1583	120	-63.75	-22.5	-63.75	-60	-127.5	-116.25	-150
1584	146.25	-82.5	-37.5	-82.5	-78.75	-142.5	-131.25	-161.25
1585	168.75	-127.5	-48.75	-97.5	-97.5	-157.5	-142.5	-165
1586	123.75	-153.75	-41.25	-82.5	-82.5	-150	-127.5	-153.75
1587	75	-146.25	-37.5	-78.75	-78.75	-146.25	-123.75	-150
1588	86.25	-112.5	-41.25	-90	-90	-157.5	-138.75	-165
1589	112.5	-97.5	-37.5	-90	-86.25	-153.75	-135	-165
1590	101.25	-97.5	-30	-78.75	-78.75	-146.25	-123.75	-157.5
1591	56.25	-90	-18.75	-71.25	-67.5	-135	-120	-153.75
1592	22.5	-75	-15	-71.25	-71.25	-135	-123.75	-157.5
1593	30	-52.5	-30	-90	-86.25	-150	-138.75	-168.75
1594	48.75	-52.5	-41.25	-93.75	-90	-157.5	-146.25	-176.25
1595	75	-60	-41.25	-97.5	-93.75	-161.25	-150	-176.25
1596	123.75	-71.25	-48.75	-108.75	-105	-172.5	-157.5	-180
1597	168.75	-82.5	-56.25	-112.5	-112.5	-183.75	-165	-183.75
1598	146.25	-93.75	-45	-97.5	-101.25	-172.5	-150	-168.75
1599	101.25	-90	-33.75	-93.75	-97.5	-161.25	-138.75	-165
1600	86.25	-78.75	-33.75	-105	-112.5	-165	-138.75	-165
1601	97.5	-75	-45	-120	-123.75	-176.25	-153.75	-176.25
1602	78.75	-86.25	-45	-112.5	-112.5	-180	-157.5	-180
1603	37.5	-86.25	-33.75	-101.25	-97.5	-168.75	-150	-172.5
1604	11.25	-82.5	-30	-93.75	-97.5	-165	-150	-172.5
1605	11.25	-108.75	-48.75	-108.75	-116.25	-180	-168.75	-183.75
1606	48.75	-112.5	-56.25	-120	-127.5	-191.25	-176.25	-187.5
1607	71.25	-82.5	-56.25	-120	-120	-187.5	-176.25	-191.25
1608	93.75	-71.25	-67.5	-131.25	-135	-202.5	-191.25	-210
1609	127.5	-82.5	-71.25	-138.75	-142.5	-217.5	-198.75	-213.75
1610	142.5	-86.25	-45	-116.25	-123.75	-195	-172.5	-187.5
1611	116.25	-93.75	-26.25	-101.25	-108.75	-180	-153.75	-172.5
1612	67.5	-105	-41.25	-112.5	-116.25	-187.5	-161.25	-176.25
1613	60	-97.5	-52.5	-123.75	-127.5	-191.25	-168.75	-183.75
1614	60	-90	-41.25	-112.5	-116.25	-183.75	-157.5	-172.5
1615	41.25	-86.25	-30	-101.25	-105	-172.5	-150	-165
1616	30	-86.25	-26.25	-97.5	-97.5	-168.75	-146.25	-165
1617	33.75	-97.5	-26.25	-93.75	-93.75	-161.25	-142.5	-157.5
1618	45	-116.25	-26.25	-93.75	-93.75	-161.25	-138.75	-153.75
1619	60	-116.25	-37.5	-108.75	-105	-172.5	-150	-168.75
1620	105	-108.75	-52.5	-120	-123.75	-187.5	-161.25	-180
1621	165	-120	-67.5	-135	-142.5	-210	-180	-191.25
1622	153.75	-131.25	-56.25	-123.75	-131.25	-202.5	-172.5	-187.5
1623	108.75	-120	-33.75	-101.25	-112.5	-183.75	-153.75	-172.5
1624	90	-93.75	-15	-90	-101.25	-168.75	-142.5	-157.5
1625	56.25	-86.25	-11.25	-97.5	-108.75	-172.5	-146.25	-161.25
1626	22.5	-97.5	-22.5	-101.25	-112.5	-180	-157.5	-176.25
1627	-7.5	-90	-26.25	-101.25	-116.25	-191.25	-168.75	-187.5
1628	-26.25	-45	-22.5	-108.75	-123.75	-195	-176.25	-198.75
1629	15	15	-30	-123.75	-135	-202.5	-191.25	-210
1630	67.5	41.25	-33.75	-120	-131.25	-202.5	-187.5	-202.5
1631	60	0	-26.25	-108.75	-120	-191.25	-176.25	-187.5
1632	82.5	-63.75	-22.5	-105	-116.25	-187.5	-168.75	-183.75
1633	131.25	-97.5	-18.75	-101.25	-116.25	-187.5	-165	-176.25
1634	120	-101.25	15	-75	-90	-165	-138.75	-150
1635	105	-67.5	33.75	-60	-75	-150	-120	-138.75
1636	105	-41.25	26.25	-67.5	-82.5	-150	-127.5	-146.25
1637	78.75	-60	18.75	-71.25	-90	-157.5	-135	-153.75
1638	52.5	-97.5	22.5	-71.25	-90	-157.5	-131.25	-153.75
1639	41.25	-97.5	37.5	-60	-78.75	-142.5	-120	-142.5
1640	26.25	-56.25	48.75	-52.5	-71.25	-135	-116.25	-138.75
1641	37.5	-15	52.5	-45	-60	-127.5	-112.5	-135
1642	67.5	11.25	52.5	-45	-60	-127.5	-116.25	-135
1643	67.5	15	41.25	-52.5	-71.25	-142.5	-123.75	-146.25
1644	90	-7.5	26.25	-67.5	-82.5	-157.5	-138.75	-157.5
1645	131.25	-41.25	3.75	-82.5	-101.25	-176.25	-153.75	-165
1646	131.25	-33.75	15	-71.25	-86.25	-157.5	-131.25	-138.75
1647	108.75	-22.5	30	-60	-78.75	-142.5	-112.5	-120
1648	101.25	-26.25	15	-60	-75	-142.5	-116.25	-123.75
1649	131.25	-11.25	-11.25	-71.25	-78.75	-142.5	-116.25	-123.75
1650	108.75	3.75	-33.75	-78.75	-82.5	-146.25	-120	-131.25
1651	60	33.75	-45	-82.5	-86.25	-150	-127.5	-138.75
1652	52.5	60	-48.75	-86.25	-86.25	-146.25	-131.25	-142.5
1653	48.75	60	-60	-97.5	-97.5	-157.5	-142.5	-153.75
1654	75	37.5	-75	-105	-105	-165	-146.25	-157.5
1655	86.25	-18.75	-71.25	-101.25	-105	-165	-142.5	-150
1656	135	-41.25	-67.5	-97.5	-101.25	-165	-142.5	-146.25
1657	210	-48.75	-75	-108.75	-108.75	-172.5	-146.25	-150
1658	191.25	-71.25	-75	-105	-108.75	-172.5	-142.5	-142.5
1659	131.25	-78.75	-63.75	-108.75	-112.5	-176.25	-142.5	-142.5
1660	108.75	-78.75	-63.75	-120	-131.25	-180	-150	-153.75
1661	101.25	-93.75	-71.25	-127.5	-135	-187.5	-157.5	-165
1662	86.25	-93.75	-60	-116.25	-120	-180	-150	-153.75
1663	45	-86.25	-37.5	-93.75	-105	-165	-135	-146.25
1664	22.5	-52.5	-30	-86.25	-93.75	-153.75	-131.25	-138.75
1665	41.25	-15	-45	-97.5	-105	-161.25	-142.5	-150
1666	56.25	-30	-67.5	-123.75	-131.25	-191.25	-172.5	-180
1667	48.75	-37.5	-71.25	-131.25	-138.75	-202.5	-180	-191.25
1668	86.25	-15	-71.25	-135	-142.5	-206.25	-180	-183.75
1669	135	-26.25	-86.25	-150	-157.5	-221.25	-195	-191.25
1670	105	-67.5	-75	-142.5	-153.75	-221.25	-191.25	-191.25
1671	56.25	-101.25	-48.75	-123.75	-138.75	-202.5	-172.5	-180
1672	56.25	-135	-48.75	-120	-138.75	-202.5	-172.5	-180
1673	67.5	-146.25	-56.25	-127.5	-146.25	-210	-183.75	-183.75
1674	41.25	-142.5	-52.5	-131.25	-150	-213.75	-183.75	-187.5
1675	3.75	-127.5	-41.25	-120	-142.5	-210	-183.75	-187.5
1676	-15	-120	-33.75	-116.25	-138.75	-206.25	-183.75	-187.5
1677	-15	-138.75	-45	-123.75	-146.25	-213.75	-198.75	-202.5
1678	3.75	-146.25	-56.25	-135	-157.5	-228.75	-210	-210
1679	30	-120	-63.75	-138.75	-161.25	-232.5	-213.75	-210
1680	78.75	-101.25	-86.25	-157.5	-180	-247.5	-228.75	-225
1681	127.5	-127.5	-112.5	-183.75	-206.25	-270	-247.5	-243.75
1682	90	-161.25	-101.25	-172.5	-195	-266.25	-240	-236.25
1683	48.75	-142.5	-78.75	-157.5	-180	-243.75	-217.5	-217.5
1684	48.75	-127.5	-78.75	-157.5	-176.25	-236.25	-206.25	-210
1685	45	-142.5	-75	-150	-168.75	-228.75	-202.5	-210
1686	22.5	-150	-60	-135	-157.5	-217.5	-198.75	-206.25
1687	-3.75	-138.75	-45	-127.5	-146.25	-206.25	-187.5	-198.75
1688	-11.25	-123.75	-41.25	-116.25	-135	-191.25	-172.5	-187.5
1689	15	-116.25	-33.75	-112.5	-127.5	-183.75	-165	-172.5
1690	26.25	-127.5	-45	-120	-135	-191.25	-172.5	-176.25
1691	33.75	-131.25	-52.5	-123.75	-138.75	-195	-176.25	-180
1692	82.5	-135	-60	-127.5	-142.5	-202.5	-183.75	-183.75
1693	108.75	-168.75	-71.25	-135	-157.5	-217.5	-195	-195
1694	78.75	-180	-71.25	-142.5	-165	-221.25	-198.75	-198.75
1695	37.5	-165	-67.5	-138.75	-161.25	-217.5	-195	-198.75
1696	3.75	-176.25	-71.25	-142.5	-168.75	-228.75	-210	-210
1697	15	-165	-67.5	-142.5	-172.5	-236.25	-217.5	-221.25
1698	37.5	-146.25	-56.25	-127.5	-165	-236.25	-217.5	-221.25
1699	26.25	-138.75	-30	-97.5	-150	-228.75	-217.5	-225
1700	11.25	-116.25	18.75	-48.75	-131.25	-225	-225	-236.25
1701	41.25	-101.25	75	15	-116.25	-240	-251.25	-262.5
1702	75	-135	135	90	-97.5	-258.75	-285	-300
1703	86.25	-183.75	206.25	157.5	-78.75	-277.5	-315	-330
1704	138.75	-187.5	262.5	213.75	-63.75	-285	-326.25	-345
1705	206.25	-168.75	300	281.25	-26.25	-273.75	-322.5	-337.5
1706	191.25	-146.25	356.25	390	56.25	-206.25	-262.5	-285
1707	172.5	-101.25	423.75	502.5	165	-112.5	-172.5	-202.5
1708	217.5	-37.5	461.25	592.5	266.25	-18.75	-86.25	-127.5
1709	255	-7.5	476.25	648.75	337.5	60	-11.25	-67.5
1710	258.75	41.25	506.25	720	423.75	161.25	86.25	18.75
1711	281.25	183.75	525	813.75	543.75	292.5	213.75	131.25
1712	333.75	348.75	495	873.75	652.5	427.5	348.75	247.5
1713	386.25	491.25	431.25	855	735	555	476.25	363.75
1714	423.75	615	318.75	753.75	783.75	667.5	603.75	487.5
1715	446.25	738.75	195	648.75	847.5	798.75	750	622.5
1716	502.5	900	127.5	607.5	941.25	952.5	915	776.25
1717	570	1087.5	41.25	517.5	997.5	1098.75	1095	956.25
1718	555	1290	-142.5	303.75	993.75	1230	1282.5	1155
1719	525	1492.5	-371.25	26.25	971.25	1353.75	1458.75	1331.25
1720	528.75	1616.25	-592.5	-255	948.75	1477.5	1612.5	1473.75
1721	513.75	1657.5	-765	-502.5	948.75	1605	1755	1593.75
1722	461.25	1620	-802.5	-581.25	1012.5	1728.75	1863.75	1657.5
1723	371.25	1522.5	-768.75	-558.75	1095	1818.75	1912.5	1653.75
1724	288.75	1425	-810	-630	1087.5	1822.5	1893.75	1601.25
1725	232.5	1327.5	-911.25	-795	956.25	1695	1755	1462.5
1726	187.5	1158.75	-937.5	-885	783.75	1451.25	1500	1230
1727	135	911.25	-873.75	-907.5	573.75	1132.5	1181.25	956.25
1728	105	656.25	-828.75	-982.5	266.25	727.5	813.75	671.25
1729	60	450	-810	-1080	-71.25	311.25	450	401.25
1730	-30	292.5	-787.5	-1151.25	-333.75	-3.75	172.5	198.75
1731	-101.25	161.25	-750	-1136.25	-446.25	-168.75	0	56.25
1732	-108.75	45	-693.75	-1038.75	-431.25	-221.25	-90	-48.75
1733	-101.25	-41.25	-633.75	-930	-386.25	-232.5	-142.5	-120
1734	-93.75	-30	-585	-813.75	-311.25	-195	-131.25	-127.5
1735	-93.75	30	-547.5	-708.75	-243.75	-138.75	-86.25	-97.5
1736	-112.5	33.75	-513.75	-633.75	-225	-123.75	-71.25	-82.5
1737	-101.25	22.5	-483.75	-592.5	-251.25	-153.75	-101.25	-112.5
1738	-60	11.25	-453.75	-532.5	-240	-165	-120	-131.25
1739	-33.75	-22.5	-405	-446.25	-195	-150	-112.5	-127.5
1740	26.25	-15	-352.5	-356.25	-146.25	-120	-93.75	-108.75
1741	105	-15	-307.5	-281.25	-97.5	-90	-67.5	-82.5
1742	112.5	-41.25	-236.25	-198.75	-45	-52.5	-33.75	-56.25
1743	93.75	-41.25	-161.25	-123.75	3.75	-22.5	-7.5	-37.5
1744	75	-22.5	-120	-86.25	15	-26.25	-15	-52.5
1745	52.5	-7.5	-108.75	-78.75	3.75	-48.75	-41.25	-78.75
1746	48.75	7.5	-93.75	-71.25	-3.75	-60	-56.25	-93.75
1747	18.75	3.75	-63.75	-48.75	3.75	-56.25	-56.25	-97.5
1748	15	7.5	-26.25	-11.25	33.75	-37.5	-41.25	-78.75
1749	56.25	18.75	-11.25	7.5	41.25	-30	-37.5	-71.25
1750	93.75	15	-15	3.75	26.25	-45	-52.5	-82.5
1751	97.5	-7.5	-18.75	3.75	22.5	-52.5	-63.75	-93.75
1752	123.75	-22.5	-22.5	0	11.25	-67.5	-75	-105
1753	153.75	-71.25	-26.25	-7.5	-7.5	-90	-90	-108.75
1754	127.5	-135	-11.25	3.75	-7.5	-93.75	-90	-108.75
1755	93.75	-123.75	3.75	15	0	-90	-86.25	-112.5
1756	101.25	-56.25	0	11.25	-3.75	-97.5	-97.5	-123.75
1757	90	-56.25	-11.25	3.75	-18.75	-116.25	-120	-142.5
1758	41.25	-108.75	-11.25	3.75	-22.5	-120	-123.75	-146.25
1759	7.5	-116.25	7.5	22.5	-7.5	-97.5	-97.5	-127.5
1760	18.75	-63.75	30	48.75	22.5	-67.5	-71.25	-101.25
1761	41.25	-33.75	33.75	56.25	30	-60	-71.25	-105
1762	56.25	-45	7.5	30	3.75	-86.25	-97.5	-131.25
1763	78.75	-56.25	-7.5	26.25	-3.75	-93.75	-105	-135
1764	123.75	-60	0	33.75	0	-93.75	-101.25	-127.5
1765	168.75	-63.75	-3.75	33.75	-3.75	-97.5	-105	-123.75
1766	176.25	-67.5	7.5	45	7.5	-86.25	-86.25	-108.75
1767	131.25	-90	26.25	60	22.5	-67.5	-71.25	-93.75
1768	108.75	-93.75	22.5	56.25	18.75	-71.25	-75	-105
1769	97.5	-97.5	15	48.75	7.5	-82.5	-86.25	-120
1770	78.75	-120	22.5	60	15	-78.75	-82.5	-116.25
1771	48.75	-123.75	37.5	71.25	30	-71.25	-78.75	-108.75
1772	26.25	-90	41.25	78.75	37.5	-60	-71.25	-97.5
1773	22.5	-63.75	41.25	78.75	37.5	-60	-71.25	-97.5
1774	60	-45	33.75	75	26.25	-75	-86.25	-108.75
1775	112.5	-15	26.25	71.25	18.75	-78.75	-90	-108.75
1776	168.75	-7.5	11.25	60	7.5	-90	-97.5	-116.25
1777	202.5	-33.75	-11.25	41.25	-11.25	-112.5	-116.25	-131.25
1778	161.25	-56.25	-7.5	41.25	-7.5	-108.75	-112.5	-127.5
1779	112.5	-67.5	7.5	60	11.25	-86.25	-93.75	-120
1780	120	-75	22.5	75	26.25	-67.5	-75	-108.75
1781	153.75	-63.75	26.25	78.75	33.75	-63.75	-63.75	-93.75
1782	157.5	-41.25	26.25	78.75	33.75	-60	-60	-90
1783	101.25	-41.25	30	93.75	45	-52.5	-56.25	-90
1784	86.25	-11.25	52.5	116.25	71.25	-26.25	-33.75	-67.5
1785	123.75	37.5	48.75	116.25	71.25	-22.5	-26.25	-60
1786	127.5	30	26.25	97.5	52.5	-45	-52.5	-86.25
1787	108.75	3.75	22.5	97.5	48.75	-48.75	-60	-93.75
1788	150	-22.5	22.5	97.5	48.75	-48.75	-56.25	-86.25
1789	221.25	-52.5	7.5	90	37.5	-60	-67.5	-93.75
1790	217.5	-60	22.5	105	52.5	-52.5	-60	-86.25
1791	142.5	-82.5	30	112.5	60	-41.25	-48.75	-78.75
1792	78.75	-131.25	18.75	93.75	45	-48.75	-56.25	-86.25
1793	90	-123.75	22.5	105	60	-33.75	-41.25	-71.25
1794	146.25	-60	41.25	135	90	-7.5	-15	-45
1795	131.25	-11.25	56.25	150	101.25	7.5	0	-37.5
1796	67.5	7.5	63.75	150	97.5	11.25	0	-37.5
1797	56.25	11.25	48.75	138.75	93.75	3.75	-11.25	-52.5
1798	112.5	22.5	37.5	138.75	93.75	0	-18.75	-52.5
1799	146.25	30	41.25	150	105	7.5	-15	-45
1800	172.5	26.25	33.75	142.5	97.5	0	-18.75	-48.75
1801	221.25	-7.5	11.25	127.5	78.75	-18.75	-30	-56.25
1802	232.5	-30	11.25	131.25	78.75	-18.75	-30	-56.25
1803	198.75	-3.75	18.75	142.5	86.25	-11.25	-22.5	-56.25
1804	191.25	15	15	135	82.5	-18.75	-30	-63.75
1805	187.5	18.75	18.75	138.75	86.25	-15	-26.25	-56.25
1806	172.5	37.5	30	150	101.25	0	-7.5	-41.25
1807	142.5	41.25	41.25	161.25	112.5	22.5	11.25	-22.5
1808	116.25	18.75	63.75	191.25	142.5	52.5	37.5	0
1809	123.75	-7.5	75	213.75	168.75	67.5	48.75	3.75
1810	153.75	-11.25	67.5	210	161.25	60	41.25	0
1811	183.75	18.75	56.25	195	142.5	48.75	30	-7.5
1812	210	26.25	33.75	176.25	131.25	30	15	-22.5
1813	243.75	7.5	11.25	161.25	112.5	11.25	0	-37.5
1814	232.5	-11.25	26.25	165	108.75	15	7.5	-30
1815	198.75	-11.25	48.75	195	135	37.5	26.25	-15
1816	191.25	-3.75	52.5	210	153.75	48.75	33.75	-11.25
1817	210	7.5	52.5	206.25	150	48.75	37.5	-7.5
1818	213.75	22.5	56.25	206.25	150	52.5	41.25	0
1819	187.5	37.5	60	217.5	157.5	60	48.75	0
1820	153.75	56.25	63.75	221.25	165	67.5	52.5	7.5
1821	172.5	75	63.75	225	172.5	75	56.25	11.25
1822	217.5	75	56.25	225	172.5	75	56.25	15
1823	247.5	86.25	60	232.5	180	82.5	63.75	22.5
1824	273.75	82.5	60	232.5	180	82.5	63.75	26.25
1825	296.25	33.75	41.25	217.5	161.25	60	48.75	15
1826	281.25	-18.75	41.25	213.75	153.75	48.75	45	11.25
1827	240	-41.25	48.75	221.25	157.5	56.25	52.5	18.75
1828	236.25	-30	48.75	213.75	153.75	60	52.5	18.75
1829	240	-22.5	52.5	213.75	153.75	63.75	56.25	22.5
1830	236.25	-11.25	63.75	228.75	165	78.75	71.25	30
1831	187.5	22.5	75	236.25	172.5	86.25	78.75	37.5
1832	146.25	56.25	67.5	221.25	161.25	78.75	71.25	26.25
1833	172.5	86.25	60	217.5	157.5	75	63.75	22.5
1834	236.25	108.75	56.25	213.75	157.5	75	63.75	26.25
1835	262.5	116.25	52.5	206.25	146.25	67.5	56.25	22.5
1836	277.5	97.5	33.75	187.5	120	41.25	37.5	3.75
1837	326.25	71.25	30	183.75	112.5	30	30	0
1838	337.5	60	41.25	191.25	120	37.5	41.25	15
1839	281.25	45	60	202.5	131.25	48.75	56.25	30
1840	251.25	30	60	202.5	127.5	48.75	56.25	30
1841	262.5	45	60	202.5	123.75	45	52.5	22.5
1842	277.5	86.25	71.25	206.25	127.5	52.5	56.25	30
1843	247.5	97.5	78.75	210	131.25	56.25	63.75	33.75
1844	217.5	101.25	78.75	202.5	123.75	52.5	60	30
1845	213.75	101.25	75	191.25	116.25	48.75	56.25	30
1846	213.75	63.75	63.75	176.25	101.25	30	37.5	11.25
1847	221.25	37.5	48.75	161.25	82.5	7.5	11.25	-11.25
1848	258.75	37.5	45	153.75	75	-3.75	3.75	-18.75
1849	303.75	22.5	22.5	123.75	45	-33.75	-15	-33.75
1850	288.75	18.75	30	120	37.5	-41.25	-18.75	-33.75
1851	255	52.5	48.75	135	52.5	-30	-11.25	-26.25
1852	251.25	90	56.25	138.75	48.75	-37.5	-15	-30
1853	258.75	127.5	48.75	123.75	33.75	-45	-22.5	-33.75
1854	228.75	153.75	41.25	112.5	22.5	-48.75	-26.25	-37.5
1855	172.5	161.25	48.75	112.5	30	-41.25	-22.5	-33.75
1856	150	127.5	67.5	123.75	41.25	-30	-11.25	-30
1857	153.75	63.75	82.5	135	48.75	-22.5	-11.25	-30
1858	172.5	26.25	82.5	135	48.75	-26.25	-15	-33.75
1859	187.5	22.5	90	138.75	52.5	-22.5	-7.5	-22.5
1860	213.75	15	97.5	131.25	45	-33.75	-18.75	-30
1861	262.5	-22.5	78.75	108.75	18.75	-60	-45	-60
1862	258.75	-41.25	86.25	105	18.75	-63.75	-45	-60
1863	187.5	-52.5	108.75	112.5	22.5	-56.25	-33.75	-48.75
1864	150	-75	112.5	112.5	22.5	-63.75	-37.5	-52.5
1865	157.5	-60	101.25	105	15	-75	-52.5	-63.75
1866	146.25	-26.25	93.75	93.75	7.5	-82.5	-56.25	-71.25
1867	105	-30	93.75	86.25	0	-86.25	-63.75	-78.75
1868	60	-41.25	97.5	78.75	0	-86.25	-67.5	-78.75
1869	60	-22.5	90	71.25	-3.75	-86.25	-67.5	-78.75
1870	105	-7.5	93.75	71.25	-7.5	-86.25	-67.5	-78.75
1871	112.5	-33.75	82.5	60	-15	-97.5	-86.25	-93.75
1872	135	-52.5	67.5	41.25	-30	-116.25	-101.25	-112.5
1873	191.25	-71.25	63.75	37.5	-33.75	-120	-101.25	-108.75
1874	172.5	-90	75	45	-22.5	-108.75	-86.25	-93.75
1875	108.75	-86.25	82.5	45	-22.5	-108.75	-86.25	-97.5
1876	86.25	-75	78.75	41.25	-33.75	-123.75	-97.5	-116.25
1877	82.5	-63.75	82.5	37.5	-37.5	-127.5	-108.75	-123.75
1878	63.75	-63.75	75	26.25	-45	-138.75	-116.25	-131.25
1879	22.5	-67.5	75	18.75	-48.75	-135	-120	-131.25
1880	-3.75	-56.25	78.75	22.5	-41.25	-127.5	-112.5	-127.5
1881	15	-45	67.5	7.5	-48.75	-135	-120	-135
1882	63.75	-41.25	60	3.75	-52.5	-138.75	-123.75	-135
1883	86.25	-45	63.75	11.25	-45	-131.25	-116.25	-127.5
1884	116.25	-41.25	52.5	-7.5	-60	-146.25	-127.5	-131.25
1885	168.75	-30	22.5	-33.75	-90	-180	-153.75	-157.5
1886	142.5	-45	18.75	-41.25	-97.5	-187.5	-157.5	-161.25
1887	75	-78.75	37.5	-30	-86.25	-176.25	-146.25	-150
1888	63.75	-93.75	41.25	-26.25	-82.5	-168.75	-138.75	-150
1889	63.75	-105	45	-22.5	-78.75	-168.75	-138.75	-150
1890	60	-131.25	48.75	-18.75	-75	-161.25	-131.25	-142.5
1891	30	-142.5	60	-11.25	-63.75	-150	-127.5	-138.75
1892	-3.75	-116.25	63.75	-7.5	-60	-146.25	-123.75	-138.75
1893	7.5	-78.75	48.75	-26.25	-78.75	-157.5	-138.75	-150
1894	48.75	-60	26.25	-48.75	-97.5	-176.25	-157.5	-165
1895	63.75	-60	18.75	-48.75	-97.5	-180	-161.25	-168.75
1896	105	-56.25	15	-52.5	-97.5	-187.5	-168.75	-168.75
1897	172.5	-56.25	18.75	-52.5	-101.25	-187.5	-165	-161.25
1898	157.5	-75	15	-56.25	-108.75	-187.5	-157.5	-157.5
1899	90	-78.75	15	-71.25	-120	-191.25	-161.25	-165
1900	63.75	-63.75	18.75	-71.25	-123.75	-195	-165	-176.25
1901	60	-56.25	22.5	-56.25	-108.75	-191.25	-157.5	-168.75
1902	71.25	-45	26.25	-52.5	-101.25	-187.5	-157.5	-168.75
1903	41.25	-30	33.75	-52.5	-101.25	-187.5	-161.25	-180
1904	-18.75	-26.25	26.25	-56.25	-101.25	-187.5	-165	-183.75
1905	-26.25	-26.25	22.5	-52.5	-97.5	-176.25	-157.5	-176.25
1906	-7.5	-56.25	22.5	-60	-97.5	-176.25	-153.75	-172.5
1907	22.5	-75	26.25	-60	-101.25	-172.5	-150	-165
1908	93.75	-67.5	26.25	-45	-86.25	-165	-142.5	-157.5
1909	142.5	-112.5	26.25	-37.5	-78.75	-165	-142.5	-153.75
1910	120	-153.75	41.25	-30	-71.25	-161.25	-131.25	-142.5
1911	63.75	-161.25	63.75	-11.25	-52.5	-142.5	-116.25	-127.5
1912	52.5	-161.25	63.75	-7.5	-52.5	-142.5	-116.25	-131.25
1913	63.75	-165	52.5	-18.75	-63.75	-146.25	-120	-138.75
1914	67.5	-153.75	52.5	-18.75	-63.75	-146.25	-120	-138.75
1915	45	-105	60	-11.25	-56.25	-138.75	-108.75	-127.5
1916	11.25	-75	56.25	-15	-56.25	-135	-108.75	-127.5
1917	-11.25	-82.5	45	-22.5	-63.75	-142.5	-120	-138.75
1918	-3.75	-86.25	33.75	-30	-75	-153.75	-135	-150
1919	15	-67.5	33.75	-30	-71.25	-153.75	-135	-146.25
1920	60	-52.5	18.75	-45	-86.25	-172.5	-150	-161.25
1921	138.75	-52.5	-7.5	-67.5	-112.5	-195	-172.5	-180
1922	138.75	-90	3.75	-56.25	-101.25	-187.5	-161.25	-168.75
1923	97.5	-116.25	30	-30	-75	-165	-135	-142.5
1924	82.5	-93.75	41.25	-26.25	-78.75	-150	-120	-131.25
1925	52.5	-105	41.25	-33.75	-82.5	-150	-120	-135
1926	37.5	-127.5	45	-22.5	-63.75	-142.5	-116.25	-131.25
1927	15	-116.25	52.5	-3.75	-41.25	-127.5	-101.25	-120
1928	-7.5	-86.25	56.25	0	-37.5	-116.25	-97.5	-123.75
1929	22.5	-48.75	56.25	3.75	-33.75	-112.5	-97.5	-120
1930	71.25	-15	45	-7.5	-45	-123.75	-105	-120
1931	71.25	-7.5	33.75	-15	-52.5	-127.5	-108.75	-127.5
1932	71.25	-48.75	18.75	-30	-67.5	-142.5	-127.5	-142.5
1933	108.75	-101.25	7.5	-45	-78.75	-161.25	-138.75	-153.75
1934	112.5	-112.5	7.5	-41.25	-82.5	-165	-135	-150
1935	108.75	-78.75	33.75	-22.5	-63.75	-142.5	-112.5	-127.5
1936	127.5	-48.75	41.25	-11.25	-52.5	-135	-105	-123.75
1937	97.5	-63.75	37.5	-11.25	-52.5	-135	-101.25	-120
1938	56.25	-78.75	37.5	-15	-52.5	-131.25	-101.25	-120
1939	22.5	-75	41.25	-15	-52.5	-131.25	-105	-123.75
1940	-18.75	-78.75	41.25	-11.25	-45	-127.5	-105	-127.5
1941	-11.25	-56.25	33.75	-15	-48.75	-131.25	-112.5	-135
1942	11.25	-18.75	18.75	-33.75	-67.5	-146.25	-123.75	-142.5
1943	33.75	11.25	3.75	-48.75	-82.5	-153.75	-131.25	-146.25
1944	82.5	7.5	3.75	-52.5	-82.5	-157.5	-135	-150
1945	123.75	-63.75	-7.5	-52.5	-86.25	-168.75	-150	-165
1946	123.75	-101.25	0	-48.75	-86.25	-172.5	-142.5	-157.5
1947	101.25	-75	22.5	-30	-67.5	-150	-116.25	-131.25
1948	97.5	-41.25	22.5	-30	-67.5	-150	-116.25	-131.25
1949	93.75	-22.5	18.75	-33.75	-67.5	-153.75	-120	-135
1950	45	-45	18.75	-33.75	-71.25	-150	-116.25	-131.25
1951	0	-71.25	26.25	-30	-63.75	-138.75	-105	-123.75
1952	-3.75	-60	33.75	-22.5	-56.25	-131.25	-101.25	-123.75
1953	18.75	-45	37.5	-18.75	-48.75	-123.75	-97.5	-120
1954	67.5	-30	33.75	-18.75	-45	-123.75	-101.25	-120
1955	101.25	-11.25	26.25	-22.5	-52.5	-131.25	-108.75	-127.5
1956	123.75	-26.25	15	-33.75	-63.75	-142.5	-120	-131.25
1957	142.5	-75	0	-48.75	-78.75	-161.25	-135	-146.25
1958	120	-105	7.5	-41.25	-78.75	-161.25	-127.5	-138.75
1959	116.25	-71.25	22.5	-30	-63.75	-146.25	-112.5	-123.75
1960	142.5	-26.25	30	-22.5	-56.25	-135	-101.25	-112.5
1961	116.25	-41.25	30	-26.25	-56.25	-138.75	-101.25	-108.75
1962	67.5	-86.25	30	-26.25	-56.25	-138.75	-105	-112.5
1963	37.5	-93.75	33.75	-26.25	-56.25	-135	-101.25	-112.5
1964	33.75	-48.75	30	-30	-56.25	-127.5	-97.5	-108.75
1965	48.75	-26.25	30	-30	-52.5	-123.75	-93.75	-108.75
1966	60	-45	30	-33.75	-60	-127.5	-97.5	-112.5
1967	67.5	-60	26.25	-41.25	-67.5	-131.25	-101.25	-112.5
1968	112.5	-56.25	18.75	-33.75	-60	-135	-105	-120
1969	180	-56.25	0	-48.75	-75	-157.5	-123.75	-131.25
1970	161.25	-71.25	-11.25	-67.5	-93.75	-176.25	-131.25	-138.75
1971	86.25	-90	7.5	-48.75	-78.75	-161.25	-120	-131.25
1972	60	-90	30	-26.25	-60	-142.5	-105	-120
1973	75	-75	30	-30	-63.75	-146.25	-105	-116.25
1974	78.75	-82.5	18.75	-41.25	-75	-157.5	-116.25	-123.75
1975	30	-97.5	22.5	-41.25	-75	-157.5	-116.25	-127.5
1976	7.5	-71.25	37.5	-30	-63.75	-146.25	-108.75	-116.25
1977	30	-26.25	33.75	-33.75	-63.75	-142.5	-112.5	-120
1978	63.75	3.75	11.25	-56.25	-82.5	-157.5	-123.75	-131.25
1979	63.75	-11.25	-3.75	-71.25	-97.5	-172.5	-138.75	-146.25
1980	86.25	-33.75	-11.25	-71.25	-97.5	-176.25	-146.25	-153.75
1981	157.5	-48.75	-7.5	-71.25	-97.5	-172.5	-138.75	-150
1982	168.75	-56.25	0	-67.5	-90	-165	-127.5	-135
1983	108.75	-63.75	11.25	-56.25	-78.75	-153.75	-120	-131.25
1984	67.5	-101.25	0	-63.75	-90	-165	-127.5	-146.25
1985	71.25	-120	-11.25	-82.5	-105	-180	-138.75	-157.5
1986	71.25	-93.75	-22.5	-93.75	-120	-191.25	-150	-165
1987	30	-67.5	-11.25	-82.5	-108.75	-180	-142.5	-157.5
1988	-3.75	-52.5	0	-67.5	-93.75	-168.75	-131.25	-146.25
1989	-7.5	-26.25	15	-56.25	-82.5	-153.75	-120	-131.25
1990	33.75	-18.75	18.75	-56.25	-78.75	-153.75	-116.25	-123.75
1991	63.75	-45	11.25	-56.25	-78.75	-157.5	-120	-127.5
1992	90	-45	0	-67.5	-90	-165	-131.25	-142.5
1993	161.25	-37.5	-26.25	-93.75	-112.5	-191.25	-153.75	-161.25
1994	176.25	-45	-22.5	-90	-112.5	-191.25	-150	-153.75
1995	108.75	-60	0	-71.25	-97.5	-172.5	-131.25	-138.75
1996	71.25	-97.5	7.5	-67.5	-93.75	-168.75	-127.5	-135
1997	78.75	-120	0	-78.75	-105	-180	-138.75	-146.25
1998	71.25	-108.75	0	-82.5	-108.75	-180	-138.75	-150
1999	26.25	-97.5	0	-86.25	-108.75	-176.25	-135	-146.25
2000	0	-63.75	-7.5	-90	-112.5	-180	-138.75	-150
2001	3.75	-26.25	-11.25	-90	-108.75	-180	-146.25	-157.5
2002	33.75	-30	-7.5	-90	-108.75	-180	-146.25	-153.75
2003	78.75	-26.25	-3.75	-86.25	-108.75	-172.5	-138.75	-142.5
2004	153.75	22.5	0	-78.75	-101.25	-172.5	-131.25	-135
2005	210	30	-11.25	-90	-116.25	-187.5	-142.5	-142.5
2006	157.5	-48.75	-18.75	-97.5	-120	-198.75	-150	-146.25
2007	93.75	-97.5	-3.75	-75	-101.25	-180	-131.25	-131.25
2008	78.75	-105	3.75	-78.75	-97.5	-176.25	-127.5	-127.5
2009	75	-108.75	-3.75	-90	-105	-183.75	-142.5	-142.5
2010	63.75	-116.25	3.75	-90	-105	-176.25	-135	-138.75
2011	11.25	-116.25	7.5	-93.75	-108.75	-176.25	-131.25	-138.75
2012	-15	-71.25	3.75	-90	-105	-176.25	-135	-146.25
2013	22.5	-37.5	7.5	-78.75	-90	-161.25	-127.5	-138.75
2014	78.75	-26.25	15	-75	-86.25	-157.5	-120	-127.5
2015	75	-37.5	7.5	-78.75	-90	-161.25	-127.5	-131.25
2016	90	-41.25	0	-82.5	-93.75	-172.5	-135	-142.5
2017	150	-41.25	-7.5	-90	-105	-183.75	-146.25	-146.25
2018	142.5	-60	7.5	-90	-112.5	-187.5	-142.5	-138.75
2019	101.25	-56.25	33.75	-71.25	-93.75	-168.75	-123.75	-123.75
2020	82.5	-56.25	45	-52.5	-75	-157.5	-120	-120
2021	75	-63.75	37.5	-67.5	-90	-172.5	-135	-135
2022	86.25	-30	33.75	-75	-97.5	-176.25	-135	-135
2023	78.75	7.5	56.25	-52.5	-75	-153.75	-112.5	-112.5
2024	26.25	15	71.25	-45	-63.75	-142.5	-101.25	-105
2025	-3.75	7.5	63.75	-52.5	-75	-153.75	-120	-131.25
2026	33.75	18.75	60	-52.5	-75	-157.5	-127.5	-138.75
2027	71.25	18.75	63.75	-45	-67.5	-146.25	-116.25	-123.75
2028	101.25	0	52.5	-52.5	-75	-153.75	-120	-127.5
2029	172.5	26.25	41.25	-63.75	-90	-172.5	-131.25	-138.75
2030	191.25	48.75	48.75	-60	-93.75	-172.5	-127.5	-135
2031	123.75	22.5	63.75	-48.75	-78.75	-165	-116.25	-127.5
2032	78.75	3.75	78.75	-41.25	-71.25	-153.75	-108.75	-123.75
2033	90	3.75	86.25	-33.75	-67.5	-146.25	-105	-116.25
2034	101.25	3.75	86.25	-30	-60	-142.5	-101.25	-105
2035	63.75	11.25	82.5	-37.5	-63.75	-138.75	-97.5	-105
2036	15	18.75	75	-33.75	-52.5	-127.5	-82.5	-93.75
2037	30	48.75	67.5	-22.5	-41.25	-112.5	-71.25	-82.5
2038	71.25	86.25	41.25	-41.25	-52.5	-120	-78.75	-86.25
2039	108.75	108.75	7.5	-60	-67.5	-131.25	-90	-97.5
2040	172.5	116.25	0	-52.5	-60	-127.5	-86.25	-90
2041	210	48.75	-15	-63.75	-71.25	-146.25	-101.25	-101.25
2042	180	-30	-22.5	-75	-90	-161.25	-116.25	-112.5
2043	127.5	-30	-15	-71.25	-82.5	-153.75	-108.75	-112.5
2044	97.5	-7.5	-18.75	-75	-86.25	-161.25	-112.5	-116.25
2045	108.75	18.75	-26.25	-90	-105	-172.5	-127.5	-131.25
2046	150	75	-37.5	-97.5	-112.5	-180	-135	-135
2047	146.25	105	-41.25	-93.75	-105	-168.75	-123.75	-123.75
2048	93.75	67.5	-30	-86.25	-97.5	-153.75	-108.75	-108.75
2049	75	26.25	-22.5	-82.5	-90	-142.5	-97.5	-93.75
2050	127.5	41.25	-22.5	-82.5	-90	-138.75	-93.75	-90
2051	153.75	15	-3.75	-75	-78.75	-135	-90	-82.5
2052	150	-52.5	7.5	-63.75	-67.5	-131.25	-86.25	-78.75
2053	191.25	-90	-15	-82.5	-93.75	-161.25	-112.5	-105
2054	191.25	-86.25	-26.25	-90	-105	-176.25	-123.75	-116.25
2055	127.5	-52.5	-15	-86.25	-97.5	-165	-112.5	-108.75
2056	90	-37.5	-3.75	-86.25	-97.5	-161.25	-112.5	-108.75
2057	93.75	-52.5	-3.75	-90	-105	-168.75	-120	-116.25
2058	97.5	-67.5	-11.25	-97.5	-108.75	-172.5	-123.75	-123.75
2059	56.25	-71.25	-3.75	-90	-101.25	-165	-120	-127.5
2060	30	-33.75	0	-90	-101.25	-165	-123.75	-131.25
2061	41.25	3.75	-22.5	-112.5	-120	-183.75	-142.5	-150
2062	63.75	0	-41.25	-131.25	-138.75	-198.75	-161.25	-165
2063	97.5	3.75	-37.5	-131.25	-142.5	-202.5	-165	-165
2064	131.25	-3.75	-33.75	-127.5	-138.75	-206.25	-165	-157.5
2065	127.5	-82.5	-60	-153.75	-168.75	-236.25	-195	-183.75
2066	97.5	-112.5	-63.75	-161.25	-176.25	-251.25	-202.5	-191.25
2067	67.5	-75	-37.5	-142.5	-161.25	-228.75	-176.25	-168.75
2068	45	-93.75	-30	-131.25	-150	-213.75	-161.25	-157.5
2069	45	-120	-41.25	-138.75	-153.75	-221.25	-172.5	-168.75
2070	48.75	-101.25	-37.5	-138.75	-153.75	-225	-176.25	-172.5
2071	22.5	-71.25	-22.5	-123.75	-142.5	-210	-165	-161.25
2072	0	-52.5	-15	-120	-135	-202.5	-157.5	-157.5
2073	22.5	-18.75	-22.5	-127.5	-142.5	-198.75	-153.75	-150
2074	60	-22.5	-37.5	-135	-146.25	-206.25	-157.5	-150
2075	67.5	-71.25	-33.75	-127.5	-138.75	-202.5	-157.5	-157.5
2076	93.75	-82.5	-41.25	-135	-146.25	-213.75	-172.5	-168.75
2077	150	-86.25	-52.5	-146.25	-157.5	-228.75	-183.75	-176.25
2078	142.5	-108.75	-48.75	-142.5	-157.5	-232.5	-183.75	-176.25
2079	112.5	-86.25	-30	-123.75	-142.5	-213.75	-165	-157.5
2080	120	-33.75	-26.25	-123.75	-142.5	-210	-161.25	-153.75
2081	112.5	-30	-30	-131.25	-146.25	-213.75	-161.25	-157.5
2082	97.5	-45	-26.25	-127.5	-142.5	-210	-161.25	-157.5
2083	45	-63.75	-30	-127.5	-142.5	-210	-161.25	-161.25
2084	-3.75	-93.75	-26.25	-127.5	-146.25	-206.25	-157.5	-157.5
2085	7.5	-90	-22.5	-123.75	-138.75	-195	-153.75	-153.75
2086	33.75	-71.25	-26.25	-120	-135	-198.75	-161.25	-161.25
2087	33.75	-71.25	-30	-127.5	-142.5	-213.75	-176.25	-176.25
2088	78.75	-86.25	-41.25	-138.75	-161.25	-232.5	-191.25	-191.25
2089	183.75	-75	-33.75	-123.75	-161.25	-243.75	-202.5	-198.75
2090	187.5	-86.25	11.25	-75	-146.25	-247.5	-210	-210
2091	90	-157.5	93.75	3.75	-120	-247.5	-221.25	-225
2092	67.5	-206.25	183.75	82.5	-97.5	-258.75	-240	-247.5
2093	105	-217.5	247.5	135	-101.25	-288.75	-281.25	-288.75
2094	112.5	-228.75	311.25	198.75	-82.5	-300	-300	-307.5
2095	82.5	-213.75	382.5	292.5	-26.25	-266.25	-273.75	-285
2096	82.5	-123.75	446.25	393.75	48.75	-206.25	-225	-240
2097	142.5	11.25	491.25	491.25	138.75	-131.25	-161.25	-183.75
2098	210	93.75	506.25	555	210	-63.75	-97.5	-123.75
2099	273.75	165	521.25	611.25	273.75	7.5	-26.25	-60
2100	348.75	251.25	536.25	667.5	341.25	75	41.25	0
2101	442.5	315	528.75	746.25	431.25	168.75	135	75
2102	483.75	375	495	791.25	540	303.75	273.75	198.75
2103	480	465	435	757.5	630	442.5	420	337.5
2104	517.5	596.25	326.25	675	705	577.5	566.25	472.5
2105	570	738.75	217.5	607.5	795	735	731.25	626.25
2106	577.5	900	161.25	577.5	911.25	915	918.75	795
2107	551.25	1113.75	71.25	483.75	986.25	1083.75	1110	982.5
2108	517.5	1361.25	-127.5	258.75	993.75	1230	1305	1181.25
2109	517.5	1545	-378.75	-56.25	956.25	1346.25	1470	1353.75
2110	566.25	1646.25	-622.5	-371.25	918.75	1451.25	1605	1485
2111	588.75	1721.25	-817.5	-600	926.25	1575	1743.75	1601.25
2112	588.75	1743.75	-915	-705	982.5	1698.75	1856.25	1668.75
2113	581.25	1668.75	-937.5	-738.75	1046.25	1781.25	1908.75	1672.5
2114	502.5	1563.75	-986.25	-813.75	1057.5	1803.75	1905	1631.25
2115	363.75	1447.5	-1080	-937.5	978.75	1725	1822.5	1541.25
2116	270	1256.25	-1106.25	-1012.5	821.25	1511.25	1601.25	1342.5
2117	187.5	1020	-1027.5	-1020	611.25	1188.75	1275	1057.5
2118	90	787.5	-956.25	-1061.25	326.25	806.25	922.5	780
2119	-3.75	577.5	-933.75	-1155	-26.25	386.25	558.75	510
2120	-86.25	412.5	-896.25	-1230	-330	22.5	240	273.75
2121	-116.25	303.75	-825	-1203.75	-468.75	-176.25	45	108.75
2122	-78.75	221.25	-757.5	-1102.5	-465	-240	-60	-3.75
2123	-52.5	138.75	-720	-982.5	-412.5	-251.25	-120	-78.75
2124	-48.75	97.5	-682.5	-862.5	-348.75	-232.5	-127.5	-105
2125	-3.75	78.75	-633.75	-757.5	-303.75	-210	-112.5	-101.25
2126	41.25	78.75	-566.25	-671.25	-277.5	-187.5	-90	-86.25
2127	63.75	97.5	-480	-562.5	-232.5	-153.75	-56.25	-56.25
2128	60	97.5	-382.5	-427.5	-157.5	-105	-18.75	-30
2129	52.5	93.75	-315	-322.5	-93.75	-71.25	3.75	-15
2130	67.5	101.25	-270	-258.75	-60	-56.25	11.25	-15
2131	56.25	97.5	-217.5	-195	-26.25	-41.25	15	-15
2132	26.25	97.5	-138.75	-116.25	26.25	-3.75	41.25	3.75
2133	30	93.75	-75	-52.5	60	18.75	56.25	15
2134	82.5	90	-52.5	-33.75	60	7.5	41.25	0
2135	116.25	86.25	-45	-37.5	45	-11.25	18.75	-18.75
2136	120	67.5	-37.5	-45	18.75	-37.5	-7.5	-41.25
2137	146.25	30	-37.5	-33.75	11.25	-63.75	-33.75	-60
2138	168.75	30	-33.75	-26.25	3.75	-82.5	-48.75	-75
2139	153.75	52.5	-18.75	-18.75	0	-86.25	-48.75	-75
2140	142.5	48.75	-7.5	-7.5	3.75	-82.5	-48.75	-75
2141	116.25	26.25	7.5	-3.75	0	-86.25	-48.75	-75
2142	97.5	37.5	3.75	-7.5	-11.25	-101.25	-60	-86.25
2143	82.5	71.25	0	-3.75	-11.25	-105	-67.5	-97.5
2144	71.25	93.75	15	11.25	3.75	-90	-56.25	-90
2145	82.5	90	22.5	18.75	11.25	-78.75	-48.75	-78.75
2146	105	48.75	30	30	15	-75	-45	-71.25
2147	93.75	7.5	33.75	33.75	18.75	-75	-45	-67.5
2148	108.75	-11.25	41.25	45	22.5	-71.25	-45	-67.5
2149	195	-30	45	48.75	18.75	-82.5	-52.5	-71.25
2150	202.5	-63.75	48.75	56.25	18.75	-82.5	-48.75	-67.5
2151	150	-71.25	67.5	71.25	33.75	-67.5	-30	-48.75
2152	120	-52.5	71.25	75	33.75	-63.75	-30	-52.5
2153	105	-37.5	56.25	56.25	15	-82.5	-52.5	-75
2154	116.25	-3.75	48.75	48.75	7.5	-90	-56.25	-78.75
2155	112.5	26.25	60	60	18.75	-78.75	-45	-71.25
2156	78.75	33.75	56.25	60	15	-82.5	-52.5	-82.5
2157	63.75	56.25	41.25	41.25	-3.75	-97.5	-71.25	-97.5
2158	82.5	75	33.75	37.5	0	-101.25	-75	-101.25
2159	108.75	78.75	37.5	52.5	11.25	-90	-67.5	-90
2160	150	71.25	33.75	48.75	7.5	-93.75	-71.25	-86.25
2161	217.5	56.25	11.25	33.75	-11.25	-116.25	-86.25	-101.25
2162	217.5	26.25	22.5	48.75	3.75	-105	-71.25	-90
2163	153.75	-11.25	41.25	67.5	18.75	-86.25	-52.5	-75
2164	127.5	-37.5	45	71.25	22.5	-82.5	-48.75	-71.25
2165	146.25	-41.25	56.25	78.75	30	-71.25	-37.5	-63.75
2166	161.25	-18.75	67.5	90	37.5	-60	-30	-56.25
2167	131.25	22.5	75	97.5	45	-52.5	-18.75	-48.75
2168	101.25	56.25	75	105	56.25	-45	-18.75	-48.75
2169	108.75	75	63.75	97.5	52.5	-48.75	-26.25	-52.5
2170	142.5	97.5	56.25	93.75	48.75	-48.75	-26.25	-52.5
2171	161.25	97.5	56.25	97.5	52.5	-48.75	-22.5	-52.5
2172	176.25	82.5	48.75	93.75	45	-56.25	-30	-56.25
2173	225	78.75	30	78.75	30	-75	-48.75	-71.25
2174	225	60	18.75	67.5	15	-90	-56.25	-82.5
2175	187.5	52.5	30	82.5	26.25	-78.75	-45	-67.5
2176	180	45	52.5	108.75	52.5	-48.75	-18.75	-41.25
2177	180	7.5	67.5	131.25	75	-26.25	3.75	-22.5
2178	202.5	11.25	71.25	135	78.75	-22.5	11.25	-18.75
2179	180	41.25	75	138.75	82.5	-18.75	11.25	-22.5
2180	116.25	45	71.25	138.75	82.5	-18.75	7.5	-26.25
2181	131.25	60	63.75	135	82.5	-18.75	3.75	-30
2182	180	75	56.25	138.75	82.5	-18.75	0	-33.75
2183	183.75	75	48.75	131.25	78.75	-26.25	-3.75	-33.75
2184	206.25	67.5	41.25	123.75	71.25	-33.75	-7.5	-33.75
2185	273.75	48.75	30	116.25	63.75	-41.25	-15	-41.25
2186	273.75	30	26.25	116.25	60	-45	-15	-41.25
2187	243.75	78.75	48.75	142.5	78.75	-22.5	7.5	-18.75
2188	225	116.25	56.25	150	90	-11.25	18.75	-7.5
2189	191.25	63.75	52.5	146.25	93.75	-11.25	15	-15
2190	176.25	45	48.75	138.75	86.25	-15	11.25	-18.75
2191	157.5	78.75	63.75	146.25	90	-3.75	22.5	-3.75
2192	108.75	82.5	71.25	172.5	112.5	18.75	41.25	7.5
2193	120	97.5	67.5	183.75	131.25	30	41.25	11.25
2194	176.25	120	71.25	183.75	131.25	26.25	37.5	7.5
2195	187.5	131.25	63.75	183.75	123.75	15	30	3.75
2196	191.25	127.5	41.25	165	108.75	0	15	-7.5
2197	247.5	93.75	26.25	153.75	97.5	-15	3.75	-18.75
2198	270	78.75	26.25	157.5	101.25	-15	7.5	-11.25
2199	243.75	101.25	48.75	180	120	11.25	37.5	15
2200	247.5	142.5	60	195	135	30	56.25	26.25
2201	247.5	116.25	63.75	202.5	142.5	41.25	63.75	30
2202	247.5	78.75	71.25	213.75	157.5	48.75	71.25	33.75
2203	236.25	86.25	86.25	236.25	172.5	71.25	90	45
2204	198.75	97.5	93.75	240	180	78.75	97.5	52.5
2205	176.25	120	82.5	232.5	172.5	71.25	82.5	33.75
2206	195	161.25	60	213.75	157.5	52.5	60	15
2207	210	176.25	45	206.25	146.25	41.25	52.5	15
2208	236.25	183.75	41.25	206.25	146.25	41.25	48.75	15
2209	318.75	206.25	26.25	195	135	30	41.25	7.5
2210	348.75	198.75	22.5	198.75	138.75	30	48.75	15
2211	303.75	153.75	48.75	225	161.25	52.5	75	41.25
2212	277.5	112.5	75	251.25	183.75	78.75	97.5	63.75
2213	285	105	78.75	258.75	191.25	86.25	105	71.25
2214	285	108.75	75	258.75	187.5	86.25	108.75	75
2215	251.25	105	82.5	266.25	195	93.75	116.25	82.5
2216	228.75	120	93.75	273.75	206.25	108.75	127.5	93.75
2217	236.25	146.25	97.5	281.25	213.75	116.25	135	97.5
2218	255	165	82.5	266.25	198.75	97.5	112.5	78.75
2219	266.25	168.75	63.75	243.75	180	82.5	93.75	63.75
