samplenr	I	II	V1	V2	V3	V4	V5	V6	measurement
0	-37.5	101.25	-22.5	-63.75	-52.5	-90	-63.75	-18.75
1	-45	86.25	-30	-63.75	-56.25	-93.75	-67.5	-18.75
2	-48.75	71.25	-37.5	-71.25	-63.75	-105	-75	-26.25
3	-67.5	48.75	-56.25	-93.75	-86.25	-127.5	-97.5	-48.75
4	-71.25	41.25	-67.5	-108.75	-97.5	-135	-105	-52.5
5	-52.5	48.75	-63.75	-108.75	-97.5	-127.5	-97.5	-45
6	-37.5	56.25	-60	-105	-93.75	-127.5	-97.5	-45
7	-30	60	-52.5	-105	-93.75	-127.5	-101.25	-45
8	-45	52.5	-48.75	-108.75	-97.5	-127.5	-97.5	-45
9	-63.75	37.5	-48.75	-112.5	-105	-131.25	-101.25	-48.75
10	-60	37.5	-45	-112.5	-101.25	-131.25	-101.25	-52.5
11	-45	45	-41.25	-108.75	-101.25	-131.25	-105	-56.25
12	-56.25	37.5	-41.25	-108.75	-101.25	-131.25	-105	-56.25
13	-82.5	30	-33.75	-97.5	-93.75	-127.5	-97.5	-48.75
14	-82.5	41.25	-26.25	-90	-86.25	-120	-93.75	-41.25
15	-56.25	56.25	-26.25	-90	-90	-123.75	-97.5	-45
16	-56.25	52.5	-30	-97.5	-97.5	-127.5	-101.25	-52.5
17	-67.5	37.5	-33.75	-105	-105	-135	-108.75	-56.25
18	-75	26.25	-37.5	-112.5	-108.75	-138.75	-112.5	-60
19	-82.5	11.25	-41.25	-120	-116.25	-146.25	-120	-67.5
20	-90	-3.75	-48.75	-127.5	-123.75	-153.75	-131.25	-78.75
21	-108.75	-11.25	-45	-131.25	-127.5	-157.5	-131.25	-82.5
22	-112.5	7.5	-30	-120	-116.25	-146.25	-120	-71.25
23	-97.5	26.25	-18.75	-108.75	-108.75	-142.5	-120	-71.25
24	-71.25	33.75	-18.75	-112.5	-112.5	-146.25	-123.75	-75
25	-63.75	45	-18.75	-112.5	-112.5	-146.25	-123.75	-71.25
26	-86.25	30	-22.5	-108.75	-112.5	-146.25	-123.75	-71.25
27	-105	-11.25	-48.75	-131.25	-135	-168.75	-146.25	-93.75
28	-112.5	-22.5	-52.5	-142.5	-142.5	-176.25	-153.75	-101.25
29	-108.75	-3.75	-41.25	-131.25	-131.25	-161.25	-142.5	-86.25
30	-105	7.5	-37.5	-123.75	-127.5	-157.5	-135	-82.5
31	-101.25	0	-41.25	-127.5	-127.5	-157.5	-138.75	-86.25
32	-108.75	-15	-45	-138.75	-135	-165	-146.25	-93.75
33	-120	-22.5	-48.75	-142.5	-138.75	-172.5	-150	-97.5
34	-120	-22.5	-48.75	-142.5	-138.75	-168.75	-150	-97.5
35	-116.25	-15	-48.75	-138.75	-135	-165	-146.25	-97.5
36	-105	3.75	-37.5	-127.5	-127.5	-157.5	-135	-86.25
37	-86.25	22.5	-30	-123.75	-123.75	-153.75	-131.25	-82.5
38	-82.5	22.5	-30	-116.25	-120	-150	-127.5	-78.75
39	-97.5	0	-41.25	-123.75	-127.5	-161.25	-138.75	-86.25
40	-123.75	-33.75	-52.5	-138.75	-138.75	-168.75	-150	-101.25
41	-142.5	-48.75	-56.25	-142.5	-142.5	-172.5	-150	-101.25
42	-108.75	-18.75	-48.75	-135	-131.25	-165	-142.5	-90
43	-116.25	-30	-52.5	-138.75	-138.75	-168.75	-146.25	-97.5
44	-146.25	-45	-56.25	-146.25	-142.5	-172.5	-150	-101.25
45	-120	-15	-45	-135	-131.25	-161.25	-138.75	-90
46	-108.75	-3.75	-41.25	-131.25	-127.5	-153.75	-135	-86.25
47	-123.75	-22.5	-45	-135	-135	-161.25	-142.5	-97.5
48	-101.25	-7.5	-30	-120	-127.5	-161.25	-142.5	-97.5
49	-71.25	11.25	-3.75	-90	-108.75	-157.5	-142.5	-97.5
50	-97.5	-26.25	30	-56.25	-105	-172.5	-165	-120
51	-127.5	-67.5	75	-11.25	-101.25	-187.5	-191.25	-153.75
52	-93.75	-78.75	120	26.25	-105	-217.5	-228.75	-187.5
53	-60	-75	165	60	-112.5	-243.75	-258.75	-217.5
54	-71.25	-78.75	206.25	101.25	-97.5	-243.75	-266.25	-221.25
55	-82.5	-78.75	236.25	153.75	-63.75	-228.75	-255	-213.75
56	-56.25	-33.75	270	221.25	-15	-187.5	-217.5	-187.5
57	-7.5	41.25	311.25	296.25	56.25	-127.5	-165	-138.75
58	33.75	97.5	337.5	363.75	123.75	-67.5	-105	-86.25
59	71.25	150	345	412.5	180	-3.75	-45	-26.25
60	116.25	210	345	453.75	232.5	60	18.75	37.5
61	206.25	300	345	513.75	311.25	146.25	108.75	123.75
62	303.75	408.75	322.5	566.25	405	258.75	228.75	236.25
63	352.5	510	281.25	588.75	487.5	371.25	348.75	352.5
64	405	630	225	585	573.75	498.75	483.75	483.75
65	457.5	776.25	176.25	588.75	678.75	652.5	648.75	645
66	495	948.75	161.25	641.25	813.75	828.75	828.75	810
67	551.25	1158.75	123.75	648.75	930	1005	1020	997.5
68	573.75	1372.5	0	551.25	986.25	1162.5	1218.75	1207.5
69	570	1526.25	-142.5	412.5	1016.25	1297.5	1395	1395
70	615	1597.5	-285	232.5	1012.5	1395	1522.5	1522.5
71	626.25	1631.25	-412.5	48.75	1001.25	1481.25	1631.25	1620
72	551.25	1620	-450	-3.75	1057.5	1578.75	1721.25	1680
73	472.5	1563.75	-416.25	26.25	1143.75	1661.25	1770	1687.5
74	412.5	1507.5	-416.25	3.75	1185	1710	1788.75	1668.75
75	356.25	1451.25	-450	-75	1166.25	1691.25	1747.5	1612.5
76	266.25	1308.75	-487.5	-183.75	1057.5	1548.75	1593.75	1458.75
77	150	1098.75	-465	-262.5	885	1301.25	1335	1218.75
78	22.5	896.25	-427.5	-345	660	1005	1042.5	967.5
79	-90	693.75	-453.75	-510	341.25	641.25	720	720
80	-187.5	513.75	-480	-690	7.5	285	412.5	483.75
81	-251.25	382.5	-472.5	-791.25	-217.5	33.75	183.75	296.25
82	-285	277.5	-435	-772.5	-285	-82.5	45	153.75
83	-303.75	176.25	-408.75	-708.75	-273.75	-123.75	-33.75	56.25
84	-273.75	138.75	-393.75	-641.25	-243.75	-123.75	-60	11.25
85	-240	142.5	-371.25	-558.75	-191.25	-90	-41.25	15
86	-228.75	123.75	-348.75	-491.25	-161.25	-75	-26.25	26.25
87	-221.25	86.25	-330	-453.75	-172.5	-90	-41.25	11.25
88	-206.25	56.25	-300	-408.75	-176.25	-105	-52.5	-3.75
89	-161.25	67.5	-258.75	-345	-142.5	-86.25	-41.25	3.75
90	-97.5	120	-213.75	-270	-93.75	-52.5	-15	30
91	-60	157.5	-176.25	-198.75	-41.25	-15	15	52.5
92	-52.5	153.75	-138.75	-138.75	-3.75	7.5	26.25	60
93	-56.25	138.75	-108.75	-101.25	11.25	7.5	22.5	48.75
94	-60	138.75	-71.25	-67.5	30	18.75	26.25	52.5
95	-60	138.75	-45	-45	37.5	18.75	26.25	48.75
96	-37.5	131.25	-33.75	-37.5	33.75	7.5	11.25	37.5
97	-11.25	142.5	-15	-15	41.25	11.25	15	37.5
98	-11.25	153.75	3.75	0	48.75	15	15	41.25
99	-11.25	142.5	0	-3.75	37.5	0	3.75	30
100	-15	116.25	-11.25	-18.75	15	-18.75	-18.75	11.25
101	-26.25	97.5	-15	-26.25	3.75	-30	-30	3.75
102	-56.25	75	-15	-30	-3.75	-41.25	-41.25	-7.5
103	-86.25	48.75	-26.25	-41.25	-22.5	-60	-56.25	-26.25
104	-112.5	11.25	-33.75	-52.5	-33.75	-71.25	-71.25	-41.25
105	-105	11.25	-30	-48.75	-33.75	-71.25	-71.25	-41.25
106	-78.75	41.25	-18.75	-37.5	-26.25	-63.75	-60	-30
107	-90	41.25	-11.25	-33.75	-22.5	-63.75	-60	-30
108	-75	52.5	-7.5	-26.25	-22.5	-63.75	-60	-30
109	-67.5	63.75	0	-18.75	-15	-60	-56.25	-22.5
110	-71.25	52.5	-3.75	-18.75	-18.75	-63.75	-63.75	-26.25
111	-56.25	41.25	-15	-26.25	-30	-71.25	-67.5	-33.75
112	-30	52.5	-11.25	-26.25	-30	-71.25	-71.25	-33.75
113	-33.75	56.25	-11.25	-26.25	-26.25	-67.5	-67.5	-30
114	-45	48.75	-18.75	-30	-30	-71.25	-71.25	-30
115	-41.25	52.5	-18.75	-30	-30	-67.5	-67.5	-30
116	-45	56.25	-15	-30	-30	-67.5	-67.5	-30
117	-52.5	52.5	-15	-30	-30	-67.5	-67.5	-30
118	-52.5	56.25	-7.5	-22.5	-22.5	-60	-60	-26.25
119	-52.5	60	-3.75	-18.75	-18.75	-52.5	-52.5	-18.75
120	-37.5	63.75	-7.5	-18.75	-22.5	-56.25	-56.25	-18.75
121	-26.25	75	0	-7.5	-11.25	-48.75	-48.75	-11.25
122	-18.75	82.5	0	-3.75	-7.5	-48.75	-45	-7.5
123	-7.5	82.5	-7.5	-7.5	-15	-52.5	-52.5	-15
124	-3.75	82.5	-7.5	-11.25	-15	-56.25	-52.5	-15
125	-11.25	78.75	-7.5	-7.5	-11.25	-52.5	-52.5	-11.25
126	-22.5	71.25	-11.25	-11.25	-15	-52.5	-52.5	-15
127	-18.75	75	-11.25	-7.5	-7.5	-48.75	-48.75	-11.25
128	-18.75	82.5	-7.5	-3.75	-3.75	-41.25	-41.25	-3.75
129	-45	52.5	-15	-11.25	-11.25	-48.75	-48.75	-11.25
130	-45	48.75	-18.75	-11.25	-11.25	-48.75	-52.5	-15
131	-15	82.5	-3.75	3.75	3.75	-33.75	-37.5	-3.75
132	-15	90	0	7.5	7.5	-33.75	-33.75	0
133	-33.75	75	-7.5	11.25	7.5	-33.75	-37.5	-3.75
134	-30	75	-7.5	15	11.25	-33.75	-33.75	0
135	-3.75	86.25	-15	11.25	11.25	-33.75	-33.75	0
136	7.5	86.25	-18.75	11.25	11.25	-30	-30	3.75
137	-11.25	82.5	-15	15	15	-26.25	-30	3.75
138	-7.5	90	-11.25	18.75	18.75	-22.5	-26.25	7.5
139	30	116.25	-3.75	30	26.25	-11.25	-15	18.75
140	33.75	120	-7.5	26.25	26.25	-11.25	-15	18.75
141	11.25	101.25	-7.5	22.5	26.25	-11.25	-15	15
142	0	101.25	-3.75	30	33.75	-3.75	-11.25	18.75
143	7.5	105	-3.75	33.75	33.75	0	-7.5	18.75
144	3.75	105	-7.5	37.5	37.5	0	-3.75	22.5
145	11.25	112.5	-3.75	45	45	3.75	3.75	30
146	18.75	108.75	-15	41.25	41.25	-3.75	-3.75	26.25
147	26.25	105	-18.75	33.75	33.75	-7.5	-7.5	22.5
148	30	105	-18.75	37.5	37.5	0	-3.75	30
149	33.75	108.75	-15	45	45	7.5	3.75	33.75
150	33.75	116.25	-15	52.5	52.5	11.25	11.25	41.25
151	37.5	116.25	-15	52.5	52.5	11.25	11.25	41.25
152	37.5	108.75	-18.75	45	48.75	11.25	11.25	37.5
153	33.75	108.75	-18.75	45	48.75	11.25	11.25	37.5
154	33.75	116.25	-22.5	48.75	52.5	15	15	41.25
155	45	131.25	-11.25	60	63.75	22.5	22.5	48.75
156	52.5	138.75	-7.5	67.5	67.5	30	26.25	48.75
157	41.25	138.75	-7.5	75	75	33.75	33.75	60
158	37.5	135	-15	71.25	71.25	30	33.75	60
159	56.25	138.75	-22.5	71.25	71.25	30	30	60
160	67.5	138.75	-26.25	67.5	71.25	33.75	33.75	60
161	60	138.75	-26.25	71.25	75	37.5	37.5	67.5
162	63.75	142.5	-30	71.25	71.25	37.5	37.5	67.5
163	82.5	150	-26.25	71.25	75	41.25	41.25	67.5
164	78.75	150	-26.25	71.25	71.25	41.25	37.5	67.5
165	63.75	142.5	-30	71.25	75	41.25	41.25	67.5
166	63.75	135	-33.75	71.25	75	41.25	41.25	67.5
167	63.75	135	-37.5	67.5	75	41.25	41.25	67.5
168	67.5	165	-22.5	82.5	90	52.5	52.5	82.5
169	108.75	221.25	-3.75	108.75	112.5	75	75	105
170	138.75	225	-7.5	108.75	112.5	75	75	108.75
171	131.25	195	-15	101.25	101.25	67.5	71.25	101.25
172	112.5	183.75	-22.5	97.5	101.25	67.5	67.5	101.25
173	108.75	180	-22.5	93.75	97.5	67.5	67.5	101.25
174	108.75	176.25	-30	90	90	60	63.75	93.75
175	108.75	172.5	-30	90	90	60	63.75	97.5
176	135	191.25	-26.25	93.75	93.75	67.5	71.25	105
177	142.5	206.25	-22.5	93.75	97.5	71.25	78.75	108.75
178	138.75	213.75	-22.5	97.5	97.5	75	82.5	112.5
179	157.5	221.25	-22.5	101.25	101.25	78.75	86.25	116.25
180	135	198.75	-30	97.5	93.75	71.25	78.75	112.5
181	97.5	180	-33.75	97.5	93.75	67.5	75	108.75
182	127.5	198.75	-33.75	101.25	93.75	67.5	78.75	116.25
183	150	210	-33.75	101.25	97.5	71.25	82.5	123.75
184	150	217.5	-30	101.25	101.25	78.75	86.25	127.5
185	135	213.75	-26.25	105	101.25	78.75	90	131.25
186	138.75	206.25	-33.75	97.5	93.75	71.25	86.25	127.5
187	161.25	210	-41.25	90	86.25	67.5	82.5	123.75
188	180	225	-37.5	90	86.25	75	86.25	131.25
189	183.75	232.5	-33.75	97.5	90	78.75	97.5	135
190	153.75	217.5	-30	97.5	90	78.75	93.75	135
191	138.75	206.25	-33.75	86.25	82.5	67.5	86.25	123.75
192	157.5	221.25	-30	90	82.5	67.5	86.25	127.5
193	168.75	240	-26.25	101.25	90	75	93.75	135
194	172.5	240	-30	97.5	86.25	71.25	90	138.75
195	168.75	225	-33.75	90	75	63.75	82.5	131.25
196	172.5	228.75	-37.5	86.25	71.25	60	82.5	131.25
197	180	236.25	-33.75	90	75	63.75	86.25	135
198	176.25	228.75	-33.75	86.25	71.25	60	82.5	131.25
199	172.5	225	-37.5	78.75	63.75	48.75	75	123.75
200	172.5	232.5	-30	82.5	63.75	52.5	75	123.75
201	157.5	232.5	-18.75	86.25	67.5	52.5	78.75	123.75
202	142.5	217.5	-15	86.25	67.5	52.5	75	120
203	123.75	198.75	-22.5	78.75	56.25	41.25	63.75	112.5
204	120	202.5	-18.75	82.5	56.25	41.25	63.75	112.5
205	142.5	228.75	-7.5	90	63.75	45	67.5	116.25
206	161.25	236.25	-11.25	86.25	56.25	33.75	56.25	108.75
207	157.5	225	-11.25	82.5	48.75	26.25	52.5	105
208	135	206.25	-7.5	78.75	45	22.5	48.75	97.5
209	131.25	202.5	-3.75	78.75	45	22.5	45	97.5
210	127.5	195	-7.5	75	37.5	11.25	33.75	86.25
211	116.25	180	-7.5	67.5	30	3.75	26.25	75
212	108.75	176.25	0	67.5	26.25	3.75	22.5	71.25
213	86.25	172.5	11.25	75	33.75	7.5	26.25	75
214	63.75	161.25	18.75	75	30	7.5	22.5	71.25
215	75	157.5	15	67.5	22.5	-7.5	15	60
216	75	161.25	18.75	67.5	22.5	-11.25	11.25	52.5
217	56.25	165	18.75	67.5	18.75	-15	3.75	48.75
218	60	157.5	11.25	56.25	7.5	-30	-11.25	37.5
219	71.25	150	7.5	48.75	0	-37.5	-18.75	30
220	63.75	150	18.75	56.25	3.75	-30	-15	33.75
221	63.75	153.75	26.25	56.25	7.5	-30	-11.25	33.75
222	41.25	135	26.25	48.75	0	-33.75	-15	30
223	3.75	105	22.5	33.75	-15	-45	-30	15
224	3.75	97.5	15	22.5	-18.75	-52.5	-41.25	3.75
225	15	105	15	26.25	-15	-52.5	-41.25	3.75
226	3.75	108.75	22.5	30	-15	-48.75	-37.5	3.75
227	3.75	112.5	22.5	22.5	-18.75	-56.25	-45	-3.75
228	15	112.5	18.75	18.75	-22.5	-60	-48.75	-11.25
229	18.75	120	30	26.25	-18.75	-60	-48.75	-7.5
230	3.75	116.25	33.75	26.25	-18.75	-60	-48.75	-7.5
231	-22.5	90	18.75	7.5	-30	-71.25	-60	-18.75
232	-52.5	48.75	7.5	-7.5	-45	-82.5	-75	-30
233	-75	26.25	3.75	-15	-52.5	-90	-78.75	-37.5
234	-75	37.5	11.25	-15	-48.75	-86.25	-75	-33.75
235	-71.25	45	18.75	-11.25	-45	-82.5	-71.25	-30
236	-60	48.75	18.75	-18.75	-48.75	-86.25	-75	-33.75
237	-41.25	63.75	22.5	-22.5	-52.5	-86.25	-75	-33.75
238	-33.75	78.75	26.25	-18.75	-48.75	-82.5	-71.25	-30
239	-56.25	63.75	22.5	-22.5	-56.25	-86.25	-75	-33.75
240	-60	52.5	15	-30	-60	-97.5	-82.5	-45
241	-45	71.25	18.75	-26.25	-56.25	-93.75	-82.5	-37.5
242	-52.5	63.75	15	-30	-60	-101.25	-86.25	-41.25
243	-67.5	41.25	3.75	-45	-75	-112.5	-97.5	-56.25
244	-67.5	41.25	3.75	-48.75	-75	-112.5	-97.5	-52.5
245	-78.75	41.25	7.5	-48.75	-75	-108.75	-97.5	-52.5
246	-93.75	22.5	0	-60	-86.25	-120	-108.75	-63.75
247	-90	18.75	-3.75	-63.75	-90	-120	-108.75	-63.75
248	-97.5	22.5	0	-63.75	-86.25	-116.25	-105	-60
249	-108.75	26.25	7.5	-60	-82.5	-108.75	-97.5	-56.25
250	-82.5	30	0	-71.25	-90	-116.25	-105	-63.75
251	-48.75	41.25	-3.75	-75	-93.75	-120	-108.75	-67.5
252	-41.25	56.25	3.75	-67.5	-86.25	-116.25	-105	-63.75
253	-41.25	60	7.5	-60	-86.25	-116.25	-105	-63.75
254	-48.75	56.25	3.75	-60	-86.25	-116.25	-105	-63.75
255	-71.25	52.5	7.5	-60	-82.5	-112.5	-101.25	-56.25
256	-82.5	48.75	7.5	-60	-82.5	-108.75	-101.25	-56.25
257	-93.75	33.75	0	-67.5	-90	-120	-108.75	-63.75
258	-86.25	33.75	0	-71.25	-93.75	-120	-108.75	-60
259	-82.5	33.75	0	-71.25	-93.75	-116.25	-105	-56.25
260	-105	11.25	-7.5	-78.75	-101.25	-123.75	-112.5	-67.5
261	-123.75	-18.75	-22.5	-97.5	-116.25	-142.5	-131.25	-86.25
262	-116.25	-7.5	-15	-90	-108.75	-135	-123.75	-82.5
263	-108.75	11.25	-7.5	-78.75	-101.25	-127.5	-116.25	-75
264	-116.25	18.75	0	-71.25	-93.75	-123.75	-112.5	-67.5
265	-112.5	26.25	3.75	-63.75	-86.25	-116.25	-105	-63.75
266	-71.25	41.25	0	-63.75	-86.25	-116.25	-105	-63.75
267	-71.25	37.5	-3.75	-63.75	-90	-116.25	-105	-60
268	-93.75	26.25	0	-63.75	-86.25	-112.5	-105	-60
269	-101.25	22.5	3.75	-60	-86.25	-112.5	-97.5	-56.25
270	-78.75	22.5	-7.5	-71.25	-93.75	-116.25	-105	-63.75
271	-60	22.5	-15	-78.75	-97.5	-123.75	-112.5	-71.25
272	-78.75	30	-3.75	-67.5	-86.25	-108.75	-101.25	-60
273	-93.75	30	3.75	-63.75	-82.5	-105	-93.75	-56.25
274	-90	30	3.75	-60	-78.75	-101.25	-93.75	-56.25
275	-108.75	22.5	3.75	-56.25	-78.75	-105	-93.75	-56.25
276	-116.25	22.5	11.25	-52.5	-75	-101.25	-93.75	-52.5
277	-101.25	30	7.5	-52.5	-78.75	-105	-97.5	-56.25
278	-75	45	0	-52.5	-78.75	-105	-97.5	-56.25
279	-75	45	0	-52.5	-78.75	-105	-97.5	-56.25
280	-82.5	41.25	0	-52.5	-78.75	-105	-97.5	-56.25
281	-90	37.5	0	-52.5	-75	-105	-97.5	-56.25
282	-82.5	41.25	0	-52.5	-75	-101.25	-93.75	-52.5
283	-86.25	37.5	0	-52.5	-75	-97.5	-93.75	-52.5
284	-90	30	0	-56.25	-75	-101.25	-93.75	-56.25
285	-93.75	26.25	3.75	-56.25	-75	-101.25	-93.75	-56.25
286	-101.25	22.5	-3.75	-60	-82.5	-101.25	-97.5	-56.25
287	-90	30	-3.75	-56.25	-78.75	-101.25	-97.5	-56.25
288	-78.75	48.75	3.75	-48.75	-67.5	-93.75	-90	-48.75
289	-82.5	63.75	11.25	-37.5	-60	-86.25	-86.25	-41.25
290	-71.25	60	7.5	-37.5	-60	-90	-86.25	-45
291	-60	52.5	-3.75	-48.75	-71.25	-97.5	-93.75	-52.5
292	-78.75	37.5	-11.25	-56.25	-75	-105	-97.5	-56.25
293	-90	30	-11.25	-56.25	-75	-101.25	-97.5	-52.5
294	-90	33.75	-7.5	-52.5	-71.25	-97.5	-90	-48.75
295	-97.5	30	-7.5	-52.5	-71.25	-97.5	-90	-48.75
296	-82.5	33.75	-3.75	-56.25	-75	-97.5	-93.75	-52.5
297	-78.75	45	7.5	-48.75	-63.75	-86.25	-82.5	-45
298	-75	52.5	7.5	-41.25	-60	-86.25	-78.75	-41.25
299	-86.25	41.25	3.75	-45	-63.75	-90	-86.25	-45
300	-93.75	41.25	0	-48.75	-67.5	-90	-86.25	-48.75
301	-78.75	52.5	0	-41.25	-63.75	-90	-86.25	-45
302	-78.75	41.25	-11.25	-48.75	-71.25	-101.25	-97.5	-52.5
303	-93.75	33.75	-11.25	-52.5	-71.25	-101.25	-97.5	-56.25
304	-78.75	45	-3.75	-48.75	-67.5	-93.75	-86.25	-45
305	-56.25	60	-3.75	-45	-63.75	-90	-82.5	-41.25
306	-67.5	52.5	-7.5	-45	-63.75	-90	-82.5	-37.5
307	-97.5	30	-7.5	-52.5	-71.25	-93.75	-90	-45
308	-108.75	18.75	-11.25	-60	-71.25	-97.5	-90	-52.5
309	-97.5	18.75	-15	-60	-75	-97.5	-93.75	-52.5
310	-71.25	41.25	-7.5	-60	-71.25	-93.75	-93.75	-48.75
311	-63.75	56.25	-3.75	-52.5	-67.5	-90	-90	-45
312	-60	67.5	0	-48.75	-63.75	-86.25	-82.5	-41.25
313	-48.75	78.75	0	-37.5	-56.25	-82.5	-78.75	-33.75
314	-60	67.5	0	-41.25	-60	-86.25	-78.75	-37.5
315	-86.25	30	-15	-56.25	-75	-97.5	-93.75	-48.75
316	-93.75	11.25	-26.25	-71.25	-82.5	-108.75	-101.25	-56.25
317	-90	18.75	-22.5	-67.5	-82.5	-105	-97.5	-52.5
318	-90	30	-11.25	-56.25	-71.25	-93.75	-86.25	-45
319	-97.5	22.5	-15	-63.75	-75	-97.5	-90	-48.75
320	-82.5	26.25	-15	-67.5	-78.75	-97.5	-90	-48.75
321	-60	48.75	-7.5	-60	-71.25	-90	-82.5	-41.25
322	-52.5	67.5	-3.75	-52.5	-63.75	-82.5	-75	-33.75
323	-63.75	56.25	-7.5	-56.25	-67.5	-86.25	-78.75	-37.5
324	-82.5	37.5	-11.25	-60	-71.25	-90	-82.5	-41.25
325	-78.75	45	-11.25	-52.5	-67.5	-90	-82.5	-37.5
326	-71.25	48.75	-11.25	-56.25	-71.25	-93.75	-82.5	-41.25
327	-78.75	33.75	-18.75	-67.5	-82.5	-101.25	-93.75	-52.5
328	-75	33.75	-26.25	-75	-86.25	-105	-97.5	-52.5
329	-71.25	37.5	-22.5	-71.25	-82.5	-101.25	-93.75	-45
330	-78.75	33.75	-22.5	-71.25	-82.5	-101.25	-90	-45
331	-78.75	26.25	-26.25	-82.5	-90	-108.75	-101.25	-56.25
332	-78.75	11.25	-30	-90	-97.5	-116.25	-108.75	-67.5
333	-82.5	26.25	-22.5	-82.5	-93.75	-105	-101.25	-60
334	-93.75	45	-18.75	-75	-86.25	-101.25	-93.75	-48.75
335	-90	41.25	-18.75	-78.75	-86.25	-101.25	-93.75	-48.75
336	-75	41.25	-15	-71.25	-82.5	-101.25	-90	-48.75
337	-75	48.75	-15	-67.5	-82.5	-105	-93.75	-48.75
338	-90	37.5	-18.75	-75	-90	-108.75	-97.5	-52.5
339	-93.75	26.25	-22.5	-78.75	-93.75	-108.75	-97.5	-52.5
340	-78.75	33.75	-22.5	-78.75	-93.75	-108.75	-97.5	-52.5
341	-60	48.75	-18.75	-75	-86.25	-105	-93.75	-48.75
342	-56.25	52.5	-18.75	-78.75	-90	-105	-93.75	-48.75
343	-93.75	11.25	-33.75	-97.5	-108.75	-123.75	-112.5	-67.5
344	-120	-26.25	-45	-112.5	-123.75	-135	-123.75	-78.75
345	-105	-15	-45	-112.5	-123.75	-135	-123.75	-75
346	-101.25	3.75	-37.5	-105	-116.25	-127.5	-116.25	-67.5
347	-97.5	15	-30	-97.5	-108.75	-123.75	-108.75	-63.75
348	-93.75	30	-22.5	-90	-101.25	-116.25	-105	-56.25
349	-90	37.5	-22.5	-82.5	-101.25	-116.25	-105	-56.25
350	-90	30	-30	-90	-105	-123.75	-112.5	-63.75
351	-86.25	33.75	-30	-93.75	-108.75	-123.75	-108.75	-63.75
352	-86.25	33.75	-30	-93.75	-108.75	-120	-105	-56.25
353	-75	30	-30	-93.75	-108.75	-120	-105	-56.25
354	-60	30	-33.75	-101.25	-116.25	-123.75	-112.5	-67.5
355	-67.5	11.25	-41.25	-108.75	-120	-131.25	-116.25	-71.25
356	-86.25	-7.5	-48.75	-120	-131.25	-138.75	-123.75	-78.75
357	-93.75	0	-37.5	-112.5	-123.75	-131.25	-116.25	-75
358	-105	22.5	-18.75	-93.75	-108.75	-116.25	-97.5	-60
359	-101.25	30	-18.75	-93.75	-105	-112.5	-97.5	-56.25
360	-78.75	33.75	-22.5	-90	-105	-116.25	-101.25	-56.25
361	-82.5	37.5	-18.75	-86.25	-105	-112.5	-97.5	-48.75
362	-93.75	26.25	-30	-93.75	-112.5	-120	-105	-56.25
363	-90	18.75	-37.5	-105	-120	-131.25	-116.25	-67.5
364	-82.5	26.25	-33.75	-101.25	-116.25	-127.5	-112.5	-63.75
365	-93.75	22.5	-33.75	-101.25	-116.25	-127.5	-108.75	-63.75
366	-105	7.5	-33.75	-101.25	-120	-127.5	-112.5	-63.75
367	-108.75	-3.75	-37.5	-108.75	-120	-127.5	-112.5	-63.75
368	-105	3.75	-33.75	-108.75	-120	-123.75	-108.75	-63.75
369	-97.5	7.5	-30	-108.75	-120	-123.75	-108.75	-60
370	-97.5	11.25	-30	-105	-116.25	-123.75	-108.75	-60
371	-101.25	18.75	-22.5	-97.5	-112.5	-116.25	-101.25	-52.5
372	-108.75	18.75	-18.75	-90	-105	-112.5	-97.5	-48.75
373	-101.25	15	-26.25	-97.5	-116.25	-123.75	-108.75	-60
374	-90	15	-33.75	-101.25	-123.75	-131.25	-116.25	-67.5
375	-101.25	7.5	-37.5	-105	-123.75	-131.25	-112.5	-63.75
376	-108.75	7.5	-33.75	-101.25	-116.25	-123.75	-108.75	-60
377	-97.5	18.75	-30	-97.5	-112.5	-120	-105	-56.25
378	-90	30	-26.25	-93.75	-112.5	-120	-101.25	-56.25
379	-97.5	26.25	-22.5	-90	-108.75	-116.25	-101.25	-52.5
380	-90	26.25	-22.5	-93.75	-112.5	-116.25	-105	-56.25
381	-82.5	41.25	-7.5	-82.5	-101.25	-105	-93.75	-48.75
382	-86.25	60	7.5	-67.5	-90	-93.75	-86.25	-41.25
383	-93.75	63.75	11.25	-63.75	-86.25	-93.75	-82.5	-37.5
384	-97.5	60	11.25	-63.75	-90	-97.5	-86.25	-37.5
385	-86.25	71.25	15	-60	-86.25	-101.25	-86.25	-37.5
386	-71.25	82.5	22.5	-52.5	-82.5	-93.75	-86.25	-37.5
387	-63.75	78.75	18.75	-56.25	-82.5	-97.5	-90	-41.25
388	-67.5	78.75	26.25	-48.75	-75	-90	-82.5	-33.75
389	-82.5	60	22.5	-52.5	-78.75	-93.75	-82.5	-37.5
390	-86.25	45	15	-56.25	-86.25	-101.25	-90	-45
391	-78.75	48.75	22.5	-56.25	-78.75	-93.75	-82.5	-41.25
392	-71.25	52.5	30	-52.5	-75	-90	-78.75	-33.75
393	-82.5	48.75	37.5	-48.75	-75	-86.25	-75	-33.75
394	-78.75	71.25	45	-37.5	-67.5	-78.75	-71.25	-30
395	-63.75	101.25	52.5	-26.25	-56.25	-71.25	-63.75	-18.75
396	-63.75	116.25	56.25	-22.5	-48.75	-63.75	-56.25	-11.25
397	-67.5	123.75	52.5	-18.75	-45	-63.75	-48.75	-3.75
398	-60	112.5	30	-33.75	-60	-75	-60	-11.25
399	-52.5	105	11.25	-45	-63.75	-78.75	-60	-15
400	-48.75	108.75	0	-48.75	-63.75	-75	-60	-15
401	-22.5	120	-11.25	-48.75	-63.75	-71.25	-56.25	-7.5
402	-18.75	108.75	-26.25	-56.25	-67.5	-71.25	-56.25	-7.5
403	-45	82.5	-41.25	-71.25	-78.75	-82.5	-63.75	-15
404	-52.5	67.5	-45	-75	-82.5	-86.25	-71.25	-22.5
405	-33.75	71.25	-45	-75	-82.5	-82.5	-67.5	-22.5
406	-41.25	75	-41.25	-71.25	-78.75	-78.75	-60	-15
407	-60	63.75	-52.5	-86.25	-90	-86.25	-71.25	-18.75
408	-48.75	63.75	-63.75	-93.75	-97.5	-93.75	-78.75	-22.5
409	-33.75	82.5	-56.25	-82.5	-93.75	-90	-71.25	-18.75
410	-45	75	-56.25	-86.25	-97.5	-93.75	-75	-22.5
411	-48.75	67.5	-56.25	-97.5	-101.25	-101.25	-82.5	-26.25
412	-37.5	75	-56.25	-101.25	-108.75	-101.25	-82.5	-22.5
413	-41.25	67.5	-56.25	-101.25	-108.75	-105	-82.5	-26.25
414	-60	30	-67.5	-112.5	-123.75	-120	-101.25	-45
415	-75	3.75	-71.25	-120	-127.5	-127.5	-108.75	-56.25
416	-82.5	3.75	-60	-116.25	-123.75	-120	-101.25	-52.5
417	-86.25	18.75	-52.5	-108.75	-116.25	-108.75	-90	-41.25
418	-75	37.5	-48.75	-101.25	-108.75	-101.25	-86.25	-33.75
419	-78.75	37.5	-41.25	-97.5	-108.75	-108.75	-93.75	-41.25
420	-86.25	33.75	-41.25	-97.5	-112.5	-112.5	-97.5	-45
421	-63.75	52.5	-41.25	-97.5	-108.75	-112.5	-93.75	-41.25
422	-63.75	48.75	-45	-101.25	-116.25	-120	-101.25	-45
423	-67.5	37.5	-48.75	-108.75	-120	-123.75	-105	-52.5
424	-63.75	33.75	-52.5	-116.25	-131.25	-131.25	-112.5	-60
425	-97.5	0	-63.75	-135	-146.25	-146.25	-127.5	-75
426	-123.75	-18.75	-63.75	-135	-146.25	-150	-131.25	-78.75
427	-127.5	-22.5	-63.75	-135	-142.5	-146.25	-127.5	-75
428	-135	-30	-63.75	-138.75	-150	-150	-131.25	-78.75
429	-127.5	-11.25	-48.75	-131.25	-142.5	-142.5	-123.75	-71.25
430	-112.5	7.5	-41.25	-123.75	-135	-138.75	-120	-67.5
431	-112.5	0	-48.75	-127.5	-138.75	-142.5	-123.75	-71.25
432	-101.25	11.25	-45	-123.75	-135	-138.75	-120	-67.5
433	-90	22.5	-41.25	-116.25	-131.25	-135	-112.5	-60
434	-97.5	3.75	-52.5	-127.5	-142.5	-146.25	-127.5	-71.25
435	-116.25	-11.25	-60	-135	-150	-153.75	-135	-78.75
436	-131.25	-18.75	-63.75	-138.75	-153.75	-153.75	-135	-78.75
437	-120	-11.25	-60	-135	-150	-153.75	-131.25	-78.75
438	-101.25	3.75	-52.5	-131.25	-142.5	-146.25	-123.75	-71.25
439	-108.75	-7.5	-56.25	-135	-146.25	-146.25	-127.5	-75
440	-116.25	-15	-60	-138.75	-150	-146.25	-127.5	-75
441	-142.5	-30	-56.25	-138.75	-150	-146.25	-127.5	-75
442	-150	-45	-63.75	-142.5	-153.75	-153.75	-135	-82.5
443	-120	-18.75	-56.25	-135	-146.25	-146.25	-131.25	-78.75
444	-101.25	18.75	-37.5	-116.25	-131.25	-131.25	-112.5	-63.75
445	-86.25	33.75	-37.5	-108.75	-127.5	-131.25	-112.5	-60
446	-86.25	15	-52.5	-123.75	-138.75	-142.5	-123.75	-71.25
447	-105	-7.5	-60	-131.25	-146.25	-150	-131.25	-78.75
448	-112.5	-3.75	-52.5	-127.5	-142.5	-142.5	-123.75	-71.25
449	-108.75	0	-56.25	-127.5	-142.5	-142.5	-123.75	-71.25
450	-120	-15	-60	-131.25	-146.25	-146.25	-131.25	-75
451	-123.75	-30	-63.75	-138.75	-153.75	-153.75	-138.75	-86.25
452	-123.75	-37.5	-56.25	-131.25	-150	-153.75	-138.75	-90
453	-142.5	-56.25	-41.25	-120	-150	-157.5	-150	-105
454	-150	-78.75	-11.25	-90	-142.5	-165	-165	-120
455	-150	-93.75	33.75	-45	-135	-180	-187.5	-146.25
456	-150	-97.5	90	7.5	-123.75	-195	-210	-172.5
457	-116.25	-86.25	146.25	60	-116.25	-213.75	-232.5	-195
458	-71.25	-67.5	187.5	97.5	-108.75	-221.25	-243.75	-206.25
459	-78.75	-75	210	135	-90	-213.75	-243.75	-206.25
460	-93.75	-67.5	240	202.5	-41.25	-176.25	-213.75	-183.75
461	-45	7.5	277.5	281.25	26.25	-123.75	-165	-135
462	15	71.25	303.75	345	90	-63.75	-108.75	-86.25
463	52.5	116.25	315	390	146.25	-3.75	-52.5	-30
464	108.75	183.75	326.25	431.25	202.5	63.75	15	33.75
465	198.75	277.5	333.75	491.25	277.5	150	101.25	116.25
466	277.5	363.75	318.75	547.5	367.5	255	213.75	225
467	326.25	457.5	281.25	570	446.25	363.75	330	333.75
468	375	577.5	232.5	573.75	525	480	453.75	453.75
469	442.5	708.75	161.25	570	611.25	607.5	596.25	592.5
470	506.25	866.25	131.25	611.25	735	772.5	765	750
471	566.25	1068.75	108.75	648.75	862.5	948.75	952.5	930
472	618.75	1305	18.75	603.75	948.75	1121.25	1162.5	1151.25
473	626.25	1477.5	-116.25	498.75	1001.25	1275	1350	1353.75
474	663.75	1552.5	-251.25	341.25	1005	1376.25	1481.25	1485
475	727.5	1612.5	-382.5	150	986.25	1458.75	1590	1586.25
476	671.25	1620	-438.75	63.75	1023.75	1552.5	1691.25	1668.75
477	551.25	1537.5	-427.5	67.5	1091.25	1631.25	1740	1676.25
478	472.5	1466.25	-420	45	1136.25	1680	1758.75	1657.5
479	401.25	1413.75	-446.25	-22.5	1132.5	1680	1740	1616.25
480	311.25	1301.25	-483.75	-127.5	1042.5	1563.75	1612.5	1492.5
481	176.25	1106.25	-468.75	-202.5	896.25	1350	1383.75	1278.75
482	41.25	911.25	-420	-270	697.5	1076.25	1102.5	1035
483	-56.25	727.5	-431.25	-416.25	405	735	798.75	787.5
484	-142.5	551.25	-465	-600	78.75	386.25	491.25	555
485	-225	412.5	-457.5	-716.25	-150	127.5	258.75	367.5
486	-270	307.5	-427.5	-720	-247.5	-11.25	112.5	221.25
487	-281.25	202.5	-401.25	-675	-258.75	-67.5	15	105
488	-288.75	108.75	-397.5	-633.75	-255	-93.75	-37.5	33.75
489	-273.75	86.25	-386.25	-566.25	-217.5	-75	-30	26.25
490	-232.5	97.5	-352.5	-487.5	-172.5	-41.25	-3.75	45
491	-206.25	86.25	-330	-446.25	-180	-56.25	-11.25	33.75
492	-176.25	82.5	-296.25	-393.75	-176.25	-63.75	-18.75	33.75
493	-138.75	97.5	-262.5	-330	-153.75	-52.5	-11.25	37.5
494	-108.75	112.5	-236.25	-273.75	-123.75	-45	-11.25	37.5
495	-75	135	-210	-213.75	-82.5	-18.75	3.75	48.75
496	-52.5	138.75	-176.25	-153.75	-41.25	7.5	26.25	63.75
497	-48.75	127.5	-127.5	-93.75	-3.75	30	41.25	71.25
498	-45	116.25	-90	-60	11.25	37.5	41.25	67.5
499	-63.75	97.5	-78.75	-52.5	7.5	26.25	26.25	56.25
500	-86.25	78.75	-71.25	-52.5	-3.75	11.25	7.5	33.75
501	-90	78.75	-45	-33.75	3.75	15	11.25	37.5
502	-75	82.5	-33.75	-22.5	7.5	15	7.5	33.75
503	-56.25	82.5	-37.5	-30	-7.5	-3.75	-3.75	18.75
504	-56.25	86.25	-33.75	-26.25	-11.25	-7.5	-7.5	15
505	-67.5	78.75	-26.25	-22.5	-15	-15	-18.75	7.5
506	-78.75	60	-33.75	-30	-26.25	-30	-33.75	-3.75
507	-75	52.5	-30	-30	-30	-33.75	-33.75	-3.75
508	-56.25	52.5	-33.75	-33.75	-37.5	-41.25	-41.25	-11.25
509	-33.75	67.5	-30	-30	-37.5	-37.5	-37.5	-11.25
510	-41.25	63.75	-22.5	-26.25	-33.75	-33.75	-37.5	-7.5
511	-52.5	48.75	-26.25	-30	-41.25	-41.25	-41.25	-11.25
512	-52.5	37.5	-30	-37.5	-52.5	-48.75	-52.5	-22.5
513	-63.75	18.75	-33.75	-37.5	-56.25	-52.5	-56.25	-26.25
514	-78.75	15	-30	-37.5	-52.5	-52.5	-56.25	-26.25
515	-75	37.5	-26.25	-30	-48.75	-48.75	-56.25	-26.25
516	-52.5	71.25	-18.75	-22.5	-41.25	-45	-48.75	-18.75
517	-41.25	75	-15	-15	-41.25	-45	-48.75	-15
518	-45	48.75	-30	-26.25	-52.5	-56.25	-60	-26.25
519	-48.75	45	-30	-26.25	-48.75	-52.5	-52.5	-18.75
520	-41.25	52.5	-18.75	-15	-37.5	-41.25	-45	-11.25
521	-30	52.5	-18.75	-15	-37.5	-37.5	-41.25	-7.5
522	-26.25	60	-22.5	-18.75	-41.25	-41.25	-45	-11.25
523	-33.75	63.75	-26.25	-26.25	-48.75	-45	-48.75	-15
524	-26.25	71.25	-26.25	-26.25	-45	-41.25	-48.75	-15
525	-37.5	56.25	-30	-30	-52.5	-45	-52.5	-22.5
526	-48.75	41.25	-33.75	-33.75	-56.25	-52.5	-56.25	-26.25
527	-60	30	-37.5	-30	-56.25	-52.5	-56.25	-26.25
528	-52.5	41.25	-30	-18.75	-45	-41.25	-48.75	-15
529	-26.25	67.5	-26.25	-7.5	-37.5	-37.5	-41.25	-11.25
530	-41.25	52.5	-37.5	-18.75	-45	-45	-48.75	-18.75
531	-56.25	37.5	-45	-26.25	-56.25	-52.5	-52.5	-22.5
532	-30	67.5	-33.75	-11.25	-41.25	-37.5	-37.5	-7.5
533	-11.25	93.75	-22.5	0	-30	-22.5	-26.25	3.75
534	-18.75	78.75	-30	-7.5	-33.75	-26.25	-26.25	0
535	-22.5	52.5	-33.75	-15	-37.5	-30	-33.75	-7.5
536	-7.5	56.25	-33.75	-11.25	-37.5	-30	-33.75	-7.5
537	-7.5	67.5	-22.5	0	-26.25	-18.75	-22.5	3.75
538	-15	75	-15	7.5	-18.75	-7.5	-15	11.25
539	-15	86.25	-18.75	11.25	-15	-7.5	-11.25	15
540	3.75	112.5	-15	18.75	-7.5	0	-3.75	22.5
541	33.75	120	-11.25	26.25	-3.75	3.75	-3.75	26.25
542	18.75	90	-30	11.25	-18.75	-15	-15	11.25
543	-7.5	67.5	-45	0	-26.25	-22.5	-26.25	0
544	-7.5	71.25	-37.5	7.5	-18.75	-15	-18.75	11.25
545	-3.75	71.25	-37.5	11.25	-15	-7.5	-11.25	15
546	7.5	75	-37.5	11.25	-15	-7.5	-11.25	15
547	7.5	78.75	-37.5	7.5	-15	-3.75	-7.5	15
548	-11.25	67.5	-33.75	11.25	-11.25	0	-3.75	18.75
549	-18.75	63.75	-33.75	15	-7.5	3.75	-3.75	18.75
550	0	82.5	-37.5	15	-7.5	3.75	0	18.75
551	3.75	93.75	-26.25	26.25	3.75	15	7.5	30
552	7.5	112.5	-15	45	18.75	30	18.75	45
553	37.5	135	-15	48.75	22.5	30	22.5	48.75
554	45	127.5	-22.5	45	18.75	30	18.75	45
555	45	108.75	-22.5	48.75	26.25	33.75	26.25	48.75
556	56.25	116.25	-22.5	52.5	26.25	37.5	30	52.5
557	56.25	127.5	-26.25	45	18.75	33.75	22.5	48.75
558	45	120	-37.5	37.5	15	26.25	18.75	41.25
559	30	97.5	-45	30	11.25	26.25	15	37.5
560	18.75	78.75	-48.75	30	7.5	26.25	15	41.25
561	7.5	75	-56.25	26.25	7.5	22.5	11.25	33.75
562	15	86.25	-48.75	33.75	18.75	30	22.5	45
563	33.75	101.25	-33.75	52.5	30	48.75	37.5	60
564	41.25	127.5	-22.5	67.5	45	60	48.75	71.25
565	52.5	146.25	-30	67.5	41.25	52.5	45	67.5
566	60	131.25	-41.25	52.5	30	41.25	33.75	56.25
567	56.25	120	-52.5	45	22.5	37.5	26.25	52.5
568	63.75	135	-48.75	52.5	33.75	48.75	37.5	63.75
569	63.75	127.5	-48.75	56.25	33.75	52.5	41.25	67.5
570	60	123.75	-56.25	45	26.25	45	33.75	60
571	71.25	142.5	-60	41.25	26.25	45	37.5	60
572	78.75	142.5	-60	41.25	26.25	48.75	37.5	63.75
573	52.5	116.25	-52.5	48.75	33.75	56.25	45	71.25
574	45	112.5	-45	60	45	63.75	56.25	82.5
575	71.25	131.25	-45	63.75	48.75	67.5	60	82.5
576	93.75	165	-41.25	71.25	52.5	71.25	63.75	90
577	101.25	176.25	-41.25	78.75	56.25	75	67.5	97.5
578	105	161.25	-48.75	71.25	48.75	71.25	63.75	93.75
579	123.75	161.25	-60	60	41.25	63.75	60	86.25
580	127.5	176.25	-56.25	63.75	45	71.25	67.5	97.5
581	120	191.25	-60	60	41.25	71.25	71.25	97.5
582	123.75	195	-67.5	56.25	33.75	67.5	63.75	93.75
583	131.25	180	-63.75	60	37.5	67.5	63.75	93.75
584	131.25	168.75	-60	60	37.5	75	67.5	97.5
585	135	176.25	-56.25	63.75	45	82.5	78.75	105
586	142.5	180	-56.25	67.5	45	82.5	78.75	112.5
587	116.25	153.75	-56.25	71.25	45	82.5	82.5	112.5
588	123.75	165	-52.5	75	48.75	82.5	82.5	116.25
589	146.25	195	-52.5	78.75	48.75	82.5	82.5	120
590	138.75	191.25	-60	67.5	37.5	75	75	112.5
591	123.75	176.25	-67.5	60	30	71.25	71.25	112.5
592	120	176.25	-75	52.5	22.5	63.75	67.5	105
593	131.25	191.25	-71.25	52.5	22.5	63.75	67.5	105
594	146.25	191.25	-67.5	56.25	26.25	67.5	75	116.25
595	150	187.5	-71.25	56.25	22.5	71.25	78.75	116.25
596	146.25	195	-71.25	48.75	18.75	67.5	75	116.25
597	150	202.5	-63.75	52.5	22.5	71.25	78.75	120
598	157.5	202.5	-52.5	63.75	30	75	86.25	127.5
599	153.75	206.25	-52.5	67.5	30	78.75	86.25	131.25
600	157.5	225	-52.5	67.5	26.25	75	86.25	127.5
601	172.5	228.75	-56.25	67.5	22.5	67.5	78.75	123.75
602	180	221.25	-56.25	63.75	18.75	63.75	75	120
603	180	232.5	-52.5	67.5	18.75	67.5	78.75	123.75
604	161.25	232.5	-48.75	63.75	15	63.75	78.75	123.75
605	165	225	-56.25	56.25	7.5	52.5	67.5	112.5
606	172.5	217.5	-56.25	52.5	0	45	60	108.75
607	161.25	206.25	-56.25	45	-3.75	45	60	105
608	131.25	183.75	-56.25	41.25	-7.5	41.25	60	101.25
609	123.75	183.75	-52.5	45	-7.5	41.25	56.25	101.25
610	123.75	176.25	-45	48.75	-3.75	41.25	52.5	101.25
611	112.5	165	-41.25	52.5	-3.75	41.25	52.5	97.5
612	116.25	191.25	-33.75	60	-3.75	37.5	48.75	97.5
613	112.5	198.75	-33.75	60	-7.5	30	41.25	93.75
614	101.25	180	-30	60	-7.5	30	41.25	90
615	97.5	161.25	-30	52.5	-15	22.5	33.75	82.5
616	90	153.75	-26.25	52.5	-15	18.75	26.25	75
617	90	157.5	-18.75	52.5	-15	18.75	26.25	75
618	97.5	150	-22.5	41.25	-26.25	7.5	15	63.75
619	97.5	142.5	-22.5	33.75	-37.5	-3.75	3.75	48.75
620	75	138.75	-11.25	37.5	-30	3.75	7.5	52.5
621	60	142.5	0	45	-26.25	7.5	11.25	56.25
622	60	150	3.75	48.75	-22.5	7.5	11.25	56.25
623	67.5	161.25	0	45	-30	0	0	41.25
624	75	176.25	0	45	-33.75	-3.75	-3.75	37.5
625	63.75	172.5	0	45	-30	-7.5	-7.5	37.5
626	52.5	153.75	-3.75	30	-41.25	-18.75	-18.75	26.25
627	37.5	138.75	0	30	-41.25	-15	-15	26.25
628	15	116.25	0	30	-41.25	-18.75	-18.75	22.5
629	7.5	90	-7.5	15	-52.5	-30	-30	11.25
630	0	75	-11.25	7.5	-60	-37.5	-37.5	0
631	-3.75	75	-11.25	0	-67.5	-41.25	-45	-7.5
632	-7.5	82.5	-7.5	-3.75	-67.5	-41.25	-45	-7.5
633	-11.25	93.75	-7.5	-3.75	-67.5	-45	-48.75	-11.25
634	-26.25	86.25	0	-7.5	-67.5	-45	-48.75	-15
635	-41.25	71.25	-3.75	-7.5	-71.25	-48.75	-56.25	-15
636	-33.75	78.75	0	-3.75	-67.5	-48.75	-52.5	-15
637	-22.5	90	3.75	0	-63.75	-45	-48.75	-11.25
638	-30	75	-7.5	-11.25	-75	-56.25	-60	-18.75
639	-37.5	60	-7.5	-18.75	-82.5	-56.25	-63.75	-22.5
640	-45	56.25	-11.25	-22.5	-86.25	-60	-63.75	-26.25
641	-41.25	63.75	-11.25	-30	-86.25	-60	-67.5	-30
642	-37.5	63.75	-15	-33.75	-93.75	-67.5	-75	-37.5
643	-67.5	30	-18.75	-48.75	-101.25	-75	-82.5	-45
644	-78.75	18.75	-15	-52.5	-101.25	-75	-82.5	-48.75
645	-60	37.5	-7.5	-45	-97.5	-67.5	-78.75	-41.25
646	-60	41.25	-11.25	-48.75	-97.5	-71.25	-78.75	-41.25
647	-78.75	26.25	3.75	-37.5	-90	-63.75	-71.25	-33.75
648	-78.75	41.25	11.25	-26.25	-82.5	-56.25	-63.75	-26.25
649	-56.25	78.75	7.5	-30	-82.5	-60	-67.5	-30
650	-60	67.5	-7.5	-45	-93.75	-71.25	-78.75	-41.25
651	-67.5	45	-11.25	-56.25	-105	-78.75	-86.25	-45
652	-71.25	33.75	-22.5	-67.5	-116.25	-90	-97.5	-56.25
653	-90	18.75	-26.25	-71.25	-120	-93.75	-101.25	-60
654	-101.25	-3.75	-26.25	-78.75	-123.75	-97.5	-105	-67.5
655	-86.25	-3.75	-26.25	-82.5	-127.5	-97.5	-105	-63.75
656	-86.25	-3.75	-22.5	-82.5	-123.75	-90	-97.5	-60
657	-90	3.75	-18.75	-75	-120	-86.25	-90	-56.25
658	-90	22.5	-15	-71.25	-116.25	-86.25	-90	-52.5
659	-93.75	26.25	-18.75	-75	-116.25	-90	-93.75	-56.25
660	-82.5	33.75	-15	-71.25	-116.25	-86.25	-90	-52.5
661	-71.25	41.25	-15	-67.5	-112.5	-86.25	-90	-52.5
662	-86.25	18.75	-22.5	-71.25	-120	-93.75	-97.5	-60
663	-93.75	15	-22.5	-78.75	-123.75	-93.75	-97.5	-63.75
664	-78.75	37.5	-22.5	-78.75	-120	-93.75	-97.5	-60
665	-108.75	22.5	-30	-82.5	-123.75	-97.5	-101.25	-63.75
666	-123.75	-7.5	-41.25	-97.5	-135	-108.75	-112.5	-71.25
667	-116.25	-22.5	-41.25	-97.5	-138.75	-108.75	-112.5	-75
668	-112.5	-26.25	-37.5	-97.5	-135	-105	-108.75	-75
669	-105	-11.25	-30	-86.25	-127.5	-93.75	-97.5	-63.75
670	-78.75	15	-18.75	-75	-116.25	-86.25	-86.25	-52.5
671	-75	18.75	-15	-67.5	-108.75	-82.5	-82.5	-48.75
672	-105	7.5	-26.25	-75	-120	-90	-93.75	-60
673	-93.75	33.75	-26.25	-71.25	-112.5	-90	-90	-56.25
674	-78.75	37.5	-26.25	-71.25	-112.5	-90	-90	-56.25
675	-93.75	11.25	-26.25	-71.25	-116.25	-86.25	-90	-56.25
676	-93.75	15	-26.25	-71.25	-112.5	-82.5	-86.25	-52.5
677	-90	30	-26.25	-75	-116.25	-86.25	-90	-60
678	-82.5	37.5	-26.25	-75	-116.25	-86.25	-93.75	-63.75
679	-82.5	26.25	-30	-82.5	-120	-90	-101.25	-67.5
680	-101.25	3.75	-30	-86.25	-123.75	-93.75	-101.25	-71.25
681	-90	15	-18.75	-71.25	-108.75	-78.75	-86.25	-56.25
682	-52.5	37.5	-11.25	-63.75	-101.25	-75	-82.5	-52.5
683	-75	22.5	-18.75	-67.5	-105	-78.75	-82.5	-56.25
684	-123.75	-7.5	-18.75	-60	-105	-75	-78.75	-52.5
685	-120	-11.25	-22.5	-60	-105	-78.75	-82.5	-52.5
686	-116.25	-3.75	-33.75	-75	-112.5	-90	-90	-63.75
687	-135	3.75	-37.5	-75	-116.25	-90	-93.75	-63.75
688	-112.5	15	-33.75	-75	-112.5	-86.25	-90	-60
689	-82.5	18.75	-33.75	-75	-112.5	-82.5	-86.25	-56.25
690	-75	22.5	-22.5	-67.5	-105	-75	-78.75	-52.5
691	-78.75	18.75	-18.75	-67.5	-105	-75	-78.75	-52.5
692	-101.25	7.5	-22.5	-75	-105	-75	-82.5	-56.25
693	-93.75	26.25	-22.5	-71.25	-105	-75	-82.5	-56.25
694	-97.5	22.5	-30	-78.75	-112.5	-82.5	-90	-63.75
695	-93.75	22.5	-22.5	-71.25	-105	-78.75	-82.5	-56.25
696	-67.5	63.75	-7.5	-52.5	-90	-63.75	-71.25	-41.25
697	-56.25	78.75	-7.5	-48.75	-86.25	-63.75	-67.5	-37.5
698	-71.25	41.25	-18.75	-60	-97.5	-71.25	-78.75	-48.75
699	-75	30	-22.5	-63.75	-97.5	-71.25	-78.75	-48.75
700	-78.75	37.5	-30	-75	-105	-78.75	-86.25	-56.25
701	-75	41.25	-26.25	-71.25	-101.25	-78.75	-82.5	-48.75
702	-78.75	33.75	-22.5	-67.5	-97.5	-71.25	-75	-45
703	-90	15	-26.25	-75	-101.25	-75	-78.75	-52.5
704	-101.25	3.75	-30	-78.75	-105	-75	-82.5	-56.25
705	-108.75	7.5	-22.5	-71.25	-97.5	-67.5	-75	-48.75
706	-123.75	-3.75	-26.25	-75	-105	-75	-82.5	-56.25
707	-123.75	-7.5	-33.75	-82.5	-112.5	-82.5	-86.25	-60
708	-105	22.5	-33.75	-75	-105	-78.75	-86.25	-56.25
709	-93.75	37.5	-33.75	-75	-108.75	-82.5	-86.25	-56.25
710	-86.25	33.75	-41.25	-82.5	-112.5	-86.25	-90	-60
711	-67.5	56.25	-30	-75	-105	-75	-78.75	-52.5
712	-56.25	75	-26.25	-71.25	-105	-71.25	-75	-48.75
713	-75	45	-33.75	-78.75	-108.75	-78.75	-82.5	-52.5
714	-67.5	18.75	-33.75	-82.5	-108.75	-78.75	-82.5	-52.5
715	-48.75	33.75	-26.25	-75	-101.25	-67.5	-75	-45
716	-56.25	48.75	-15	-67.5	-97.5	-60	-63.75	-37.5
717	-82.5	22.5	-26.25	-78.75	-105	-71.25	-75	-48.75
718	-108.75	-15	-37.5	-90	-112.5	-82.5	-86.25	-56.25
719	-97.5	7.5	-30	-78.75	-105	-75	-78.75	-48.75
720	-82.5	56.25	-30	-75	-105	-75	-82.5	-48.75
721	-90	45	-41.25	-86.25	-116.25	-82.5	-86.25	-56.25
722	-101.25	3.75	-45	-93.75	-120	-90	-90	-60
723	-90	11.25	-45	-90	-120	-86.25	-90	-56.25
724	-90	26.25	-52.5	-93.75	-123.75	-93.75	-97.5	-60
725	-101.25	18.75	-56.25	-101.25	-127.5	-97.5	-97.5	-63.75
726	-101.25	15	-60	-105	-131.25	-97.5	-101.25	-67.5
727	-97.5	11.25	-56.25	-105	-131.25	-93.75	-97.5	-67.5
728	-90	18.75	-48.75	-101.25	-123.75	-82.5	-90	-60
729	-105	3.75	-45	-93.75	-116.25	-78.75	-82.5	-52.5
730	-108.75	-22.5	-37.5	-90	-116.25	-75	-78.75	-52.5
731	-112.5	-18.75	-26.25	-78.75	-108.75	-71.25	-75	-45
732	-123.75	3.75	-37.5	-86.25	-116.25	-78.75	-82.5	-56.25
733	-86.25	33.75	-52.5	-97.5	-127.5	-90	-90	-63.75
734	-56.25	45	-48.75	-93.75	-127.5	-90	-90	-60
735	-63.75	26.25	-45	-90	-120	-86.25	-86.25	-52.5
736	-63.75	18.75	-33.75	-82.5	-108.75	-71.25	-71.25	-41.25
737	-67.5	37.5	-37.5	-90	-120	-82.5	-82.5	-52.5
738	-75	45	-41.25	-97.5	-127.5	-90	-90	-60
739	-90	11.25	-41.25	-101.25	-127.5	-86.25	-86.25	-56.25
740	-120	-33.75	-48.75	-108.75	-138.75	-93.75	-93.75	-63.75
741	-112.5	-15	-41.25	-101.25	-127.5	-90	-86.25	-56.25
742	-90	15	-45	-105	-131.25	-93.75	-93.75	-63.75
743	-82.5	18.75	-56.25	-112.5	-142.5	-105	-105	-75
744	-60	48.75	-48.75	-101.25	-131.25	-93.75	-93.75	-60
745	-67.5	45	-48.75	-101.25	-131.25	-97.5	-93.75	-60
746	-101.25	-3.75	-56.25	-112.5	-142.5	-105	-101.25	-67.5
747	-112.5	-26.25	-60	-116.25	-146.25	-105	-105	-71.25
748	-112.5	-18.75	-60	-116.25	-146.25	-105	-105	-67.5
749	-90	11.25	-56.25	-116.25	-142.5	-105	-101.25	-63.75
750	-78.75	3.75	-52.5	-116.25	-146.25	-105	-101.25	-67.5
751	-108.75	-33.75	-52.5	-120	-146.25	-105	-101.25	-67.5
752	-135	-37.5	-60	-127.5	-153.75	-112.5	-108.75	-78.75
753	-108.75	-7.5	-52.5	-123.75	-146.25	-105	-101.25	-71.25
754	-63.75	22.5	-41.25	-108.75	-131.25	-93.75	-90	-56.25
755	-60	33.75	-30	-97.5	-123.75	-86.25	-82.5	-48.75
756	-82.5	30	-33.75	-97.5	-123.75	-90	-86.25	-52.5
757	-97.5	7.5	-48.75	-108.75	-138.75	-105	-101.25	-67.5
758	-90	7.5	-56.25	-120	-150	-116.25	-108.75	-75
759	-63.75	37.5	-48.75	-112.5	-142.5	-105	-97.5	-63.75
760	-48.75	52.5	-45	-108.75	-135	-97.5	-93.75	-60
761	-48.75	48.75	-41.25	-105	-131.25	-93.75	-90	-56.25
762	-67.5	26.25	-45	-116.25	-142.5	-105	-97.5	-63.75
763	-116.25	-18.75	-52.5	-127.5	-153.75	-112.5	-108.75	-75
764	-131.25	-33.75	-63.75	-138.75	-161.25	-120	-112.5	-82.5
765	-123.75	-26.25	-60	-131.25	-153.75	-112.5	-108.75	-78.75
766	-120	-33.75	-60	-135	-157.5	-116.25	-116.25	-86.25
767	-108.75	-30	-56.25	-131.25	-157.5	-116.25	-112.5	-82.5
768	-101.25	-18.75	-48.75	-116.25	-146.25	-108.75	-105	-71.25
769	-86.25	-3.75	-45	-108.75	-138.75	-105	-101.25	-63.75
770	-75	3.75	-56.25	-120	-150	-112.5	-108.75	-71.25
771	-86.25	7.5	-60	-123.75	-153.75	-112.5	-112.5	-75
772	-120	-15	-63.75	-131.25	-161.25	-120	-120	-82.5
773	-138.75	-30	-67.5	-135	-161.25	-123.75	-120	-82.5
774	-116.25	-18.75	-63.75	-135	-157.5	-120	-116.25	-78.75
775	-97.5	-30	-67.5	-138.75	-161.25	-120	-116.25	-78.75
776	-90	-33.75	-63.75	-135	-157.5	-116.25	-112.5	-78.75
777	-101.25	-15	-60	-135	-157.5	-116.25	-116.25	-78.75
778	-101.25	7.5	-60	-131.25	-157.5	-116.25	-116.25	-78.75
779	-90	26.25	-56.25	-123.75	-150	-112.5	-108.75	-75
780	-78.75	30	-45	-108.75	-138.75	-101.25	-97.5	-60
781	-71.25	30	-48.75	-112.5	-142.5	-108.75	-105	-67.5
782	-67.5	18.75	-56.25	-120	-150	-112.5	-108.75	-71.25
783	-78.75	-7.5	-48.75	-116.25	-146.25	-108.75	-105	-67.5
784	-97.5	-15	-52.5	-120	-150	-112.5	-112.5	-71.25
785	-116.25	-7.5	-63.75	-131.25	-157.5	-120	-116.25	-82.5
786	-105	-15	-60	-131.25	-157.5	-116.25	-116.25	-78.75
787	-86.25	-15	-48.75	-123.75	-146.25	-105	-105	-71.25
788	-90	0	-52.5	-127.5	-150	-108.75	-108.75	-75
789	-112.5	-15	-60	-135	-157.5	-116.25	-120	-82.5
790	-127.5	-37.5	-67.5	-138.75	-165	-123.75	-123.75	-90
791	-105	-7.5	-60	-127.5	-153.75	-112.5	-116.25	-78.75
792	-86.25	11.25	-56.25	-123.75	-153.75	-112.5	-112.5	-75
793	-97.5	-11.25	-56.25	-120	-150	-112.5	-112.5	-75
794	-86.25	-22.5	-52.5	-116.25	-142.5	-105	-105	-67.5
795	-75	-30	-37.5	-101.25	-127.5	-90	-93.75	-52.5
796	-86.25	-22.5	-33.75	-101.25	-127.5	-90	-90	-52.5
797	-90	26.25	-48.75	-112.5	-138.75	-101.25	-105	-63.75
798	-90	41.25	-48.75	-116.25	-142.5	-101.25	-101.25	-67.5
799	-101.25	11.25	-41.25	-112.5	-138.75	-97.5	-101.25	-67.5
800	-90	15	-37.5	-116.25	-138.75	-97.5	-105	-71.25
801	-90	26.25	-22.5	-101.25	-131.25	-86.25	-93.75	-60
802	-101.25	26.25	-7.5	-90	-120	-78.75	-86.25	-52.5
803	-93.75	37.5	-3.75	-82.5	-116.25	-75	-86.25	-52.5
804	-86.25	48.75	-7.5	-82.5	-120	-82.5	-90	-56.25
805	-97.5	33.75	-11.25	-82.5	-120	-82.5	-90	-60
806	-105	15	-7.5	-78.75	-112.5	-78.75	-86.25	-52.5
807	-86.25	26.25	0	-67.5	-101.25	-67.5	-78.75	-48.75
808	-60	45	7.5	-63.75	-97.5	-60	-71.25	-41.25
809	-45	45	7.5	-60	-93.75	-60	-71.25	-41.25
810	-52.5	33.75	11.25	-60	-97.5	-60	-71.25	-41.25
811	-60	30	18.75	-56.25	-93.75	-56.25	-67.5	-41.25
812	-63.75	45	18.75	-56.25	-93.75	-52.5	-60	-41.25
813	-71.25	71.25	26.25	-48.75	-86.25	-45	-52.5	-33.75
814	-67.5	86.25	33.75	-41.25	-78.75	-41.25	-52.5	-30
815	-67.5	90	26.25	-41.25	-78.75	-41.25	-52.5	-26.25
816	-56.25	112.5	15	-45	-78.75	-41.25	-52.5	-22.5
817	-56.25	108.75	-7.5	-56.25	-90	-52.5	-63.75	-30
818	-75	60	-33.75	-75	-105	-63.75	-71.25	-41.25
819	-48.75	60	-41.25	-71.25	-97.5	-56.25	-63.75	-30
820	-18.75	82.5	-45	-67.5	-90	-45	-52.5	-18.75
821	-11.25	82.5	-56.25	-75	-97.5	-48.75	-56.25	-22.5
822	-11.25	75	-67.5	-86.25	-105	-56.25	-63.75	-33.75
823	-26.25	56.25	-67.5	-90	-105	-56.25	-60	-33.75
824	-33.75	45	-63.75	-93.75	-105	-56.25	-60	-30
825	-30	67.5	-71.25	-101.25	-112.5	-60	-63.75	-33.75
826	-37.5	71.25	-82.5	-112.5	-123.75	-67.5	-71.25	-37.5
827	-45	48.75	-90	-120	-131.25	-78.75	-78.75	-45
828	-45	37.5	-71.25	-105	-116.25	-63.75	-63.75	-30
829	-33.75	37.5	-67.5	-101.25	-112.5	-63.75	-63.75	-30
830	-37.5	41.25	-82.5	-120	-135	-82.5	-82.5	-45
831	-56.25	26.25	-90	-131.25	-142.5	-93.75	-93.75	-56.25
832	-56.25	7.5	-78.75	-123.75	-135	-86.25	-90	-52.5
833	-41.25	7.5	-71.25	-116.25	-127.5	-78.75	-86.25	-52.5
834	-56.25	-7.5	-78.75	-127.5	-142.5	-90	-97.5	-63.75
835	-63.75	-18.75	-82.5	-135	-150	-93.75	-101.25	-71.25
836	-56.25	-3.75	-67.5	-127.5	-138.75	-82.5	-90	-56.25
837	-52.5	15	-56.25	-116.25	-127.5	-75	-82.5	-48.75
838	-67.5	7.5	-52.5	-112.5	-127.5	-75	-82.5	-52.5
839	-97.5	-22.5	-56.25	-112.5	-131.25	-82.5	-86.25	-56.25
840	-105	-11.25	-60	-116.25	-138.75	-90	-93.75	-63.75
841	-97.5	-3.75	-71.25	-127.5	-150	-105	-108.75	-75
842	-101.25	-18.75	-82.5	-142.5	-165	-116.25	-120	-86.25
843	-116.25	-30	-78.75	-142.5	-165	-112.5	-116.25	-82.5
844	-127.5	-52.5	-78.75	-146.25	-165	-116.25	-120	-86.25
845	-142.5	-78.75	-78.75	-150	-165	-116.25	-123.75	-90
846	-138.75	-97.5	-75	-150	-168.75	-120	-123.75	-93.75
847	-131.25	-97.5	-67.5	-150	-165	-116.25	-120	-90
848	-138.75	-86.25	-67.5	-150	-168.75	-116.25	-123.75	-90
849	-138.75	-71.25	-63.75	-146.25	-168.75	-116.25	-123.75	-90
850	-127.5	-56.25	-75	-157.5	-180	-127.5	-131.25	-101.25
851	-127.5	-48.75	-86.25	-161.25	-180	-131.25	-135	-105
852	-120	-37.5	-75	-146.25	-168.75	-120	-127.5	-93.75
853	-97.5	-30	-71.25	-142.5	-165	-116.25	-123.75	-90
854	-105	-37.5	-78.75	-150	-172.5	-123.75	-127.5	-97.5
855	-120	-41.25	-78.75	-153.75	-172.5	-127.5	-131.25	-97.5
856	-112.5	-41.25	-75	-150	-172.5	-120	-127.5	-93.75
857	-97.5	-41.25	-71.25	-146.25	-168.75	-120	-127.5	-93.75
858	-105	-33.75	-75	-153.75	-172.5	-123.75	-131.25	-97.5
859	-101.25	-26.25	-71.25	-150	-168.75	-116.25	-123.75	-90
860	-82.5	-22.5	-63.75	-142.5	-161.25	-108.75	-112.5	-78.75
861	-86.25	-30	-67.5	-146.25	-165	-112.5	-120	-86.25
862	-120	-60	-71.25	-153.75	-172.5	-120	-127.5	-93.75
863	-116.25	-45	-60	-138.75	-157.5	-108.75	-112.5	-82.5
864	-101.25	-18.75	-52.5	-123.75	-146.25	-97.5	-101.25	-71.25
865	-112.5	-26.25	-60	-131.25	-153.75	-105	-108.75	-78.75
866	-123.75	-33.75	-75	-146.25	-168.75	-120	-127.5	-93.75
867	-116.25	-26.25	-82.5	-153.75	-176.25	-123.75	-131.25	-97.5
868	-120	-30	-78.75	-150	-168.75	-120	-123.75	-93.75
869	-131.25	-41.25	-86.25	-153.75	-176.25	-127.5	-131.25	-101.25
870	-127.5	-63.75	-82.5	-153.75	-176.25	-127.5	-135	-105
871	-120	-86.25	-45	-123.75	-157.5	-112.5	-123.75	-97.5
872	-127.5	-86.25	-15	-97.5	-146.25	-116.25	-135	-112.5
873	-123.75	-75	18.75	-63.75	-142.5	-135	-161.25	-142.5
874	-116.25	-90	63.75	-22.5	-142.5	-157.5	-191.25	-176.25
875	-105	-97.5	112.5	22.5	-135	-172.5	-217.5	-202.5
876	-93.75	-97.5	153.75	67.5	-123.75	-180	-225	-206.25
877	-97.5	-108.75	183.75	116.25	-97.5	-168.75	-217.5	-202.5
878	-82.5	-90	210	168.75	-56.25	-138.75	-191.25	-183.75
879	-33.75	-11.25	243.75	243.75	11.25	-86.25	-150	-142.5
880	18.75	56.25	273.75	311.25	75	-26.25	-101.25	-97.5
881	78.75	112.5	288.75	367.5	138.75	37.5	-37.5	-41.25
882	127.5	165	288.75	393.75	183.75	93.75	18.75	15
883	176.25	198.75	281.25	431.25	232.5	157.5	90	78.75
884	255	255	270	487.5	318.75	258.75	195	180
885	333.75	367.5	243.75	525	405	367.5	311.25	292.5
886	401.25	525	206.25	536.25	483.75	483.75	435	416.25
887	476.25	678.75	142.5	532.5	566.25	607.5	573.75	555
888	566.25	836.25	116.25	585	690	765	738.75	708.75
889	607.5	997.5	108.75	648.75	825	937.5	918.75	881.25
890	641.25	1188.75	18.75	615	903.75	1095	1106.25	1080
891	712.5	1406.25	-108.75	543.75	971.25	1248.75	1297.5	1286.25
892	776.25	1533.75	-225	446.25	1005	1365	1440	1428.75
893	802.5	1563.75	-356.25	277.5	982.5	1428.75	1530	1515
894	765	1552.5	-416.25	183.75	1001.25	1507.5	1620	1593.75
895	690	1492.5	-397.5	191.25	1072.5	1586.25	1680	1616.25
896	596.25	1410	-397.5	153.75	1102.5	1623.75	1691.25	1590
897	498.75	1346.25	-416.25	67.5	1087.5	1620	1676.25	1552.5
898	401.25	1252.5	-442.5	-48.75	997.5	1526.25	1571.25	1455
899	262.5	1083.75	-435	-150	851.25	1323.75	1361.25	1260
900	116.25	896.25	-386.25	-221.25	671.25	1068.75	1095	1023.75
901	3.75	723.75	-382.5	-352.5	416.25	757.5	810	791.25
902	-97.5	551.25	-420	-525	127.5	442.5	525	570
903	-198.75	393.75	-427.5	-645	-86.25	206.25	303.75	386.25
904	-251.25	285	-397.5	-667.5	-180	75	157.5	243.75
905	-255	195	-375	-633.75	-206.25	3.75	52.5	120
906	-255	108.75	-371.25	-600	-213.75	-33.75	-7.5	41.25
907	-270	48.75	-371.25	-555	-195	-30	-18.75	18.75
908	-266.25	26.25	-352.5	-491.25	-165	-11.25	0	26.25
909	-247.5	22.5	-330	-450	-172.5	-18.75	-7.5	22.5
910	-213.75	15	-311.25	-420	-195	-48.75	-26.25	7.5
911	-172.5	26.25	-277.5	-367.5	-180	-48.75	-26.25	15
912	-135	56.25	-247.5	-307.5	-153.75	-33.75	-18.75	22.5
913	-105	101.25	-232.5	-255	-120	-18.75	-11.25	26.25
914	-67.5	131.25	-206.25	-195	-78.75	3.75	7.5	33.75
915	-45	123.75	-165	-131.25	-37.5	33.75	26.25	48.75
916	-33.75	127.5	-123.75	-90	-15	48.75	33.75	52.5
917	-41.25	127.5	-97.5	-71.25	-7.5	45	26.25	41.25
918	-63.75	90	-90	-71.25	-15	30	11.25	22.5
919	-60	63.75	-67.5	-60	-11.25	30	11.25	18.75
920	-67.5	45	-48.75	-45	-3.75	33.75	11.25	22.5
921	-82.5	26.25	-45	-45	-11.25	26.25	3.75	15
922	-82.5	26.25	-48.75	-48.75	-22.5	15	-7.5	3.75
923	-78.75	41.25	-52.5	-52.5	-33.75	0	-18.75	-7.5
924	-71.25	48.75	-52.5	-48.75	-37.5	-7.5	-26.25	-11.25
925	-60	37.5	-56.25	-56.25	-48.75	-18.75	-37.5	-22.5
926	-41.25	33.75	-63.75	-67.5	-60	-26.25	-45	-30
927	-41.25	41.25	-60	-63.75	-60	-26.25	-45	-30
928	-60	48.75	-60	-63.75	-63.75	-30	-52.5	-33.75
929	-67.5	37.5	-56.25	-63.75	-67.5	-33.75	-56.25	-33.75
930	-71.25	11.25	-52.5	-63.75	-63.75	-33.75	-56.25	-33.75
931	-71.25	0	-48.75	-63.75	-67.5	-33.75	-52.5	-33.75
932	-60	-11.25	-45	-60	-63.75	-26.25	-45	-30
933	-60	-7.5	-37.5	-56.25	-60	-26.25	-45	-30
934	-56.25	15	-45	-60	-67.5	-37.5	-52.5	-37.5
935	-41.25	37.5	-41.25	-48.75	-60	-26.25	-45	-26.25
936	-26.25	41.25	-37.5	-37.5	-52.5	-22.5	-41.25	-18.75
937	-18.75	41.25	-33.75	-33.75	-45	-18.75	-33.75	-11.25
938	-26.25	41.25	-48.75	-48.75	-63.75	-33.75	-48.75	-26.25
939	-41.25	33.75	-56.25	-63.75	-75	-45	-60	-37.5
940	-45	33.75	-52.5	-56.25	-71.25	-37.5	-52.5	-33.75
941	-45	26.25	-48.75	-56.25	-71.25	-37.5	-52.5	-30
942	-33.75	11.25	-52.5	-56.25	-71.25	-37.5	-52.5	-30
943	-22.5	7.5	-48.75	-56.25	-67.5	-30	-45	-22.5
944	-45	-11.25	-48.75	-52.5	-67.5	-30	-41.25	-22.5
945	-63.75	-22.5	-56.25	-60	-75	-37.5	-48.75	-33.75
946	-41.25	-3.75	-45	-45	-60	-26.25	-37.5	-22.5
947	-26.25	22.5	-33.75	-30	-48.75	-15	-30	-7.5
948	-18.75	60	-41.25	-33.75	-52.5	-22.5	-33.75	-11.25
949	-18.75	71.25	-56.25	-45	-63.75	-33.75	-41.25	-26.25
950	-22.5	48.75	-63.75	-52.5	-71.25	-37.5	-48.75	-30
951	-22.5	37.5	-56.25	-45	-67.5	-33.75	-48.75	-22.5
952	-26.25	41.25	-48.75	-33.75	-56.25	-22.5	-33.75	-11.25
953	-41.25	18.75	-48.75	-37.5	-52.5	-18.75	-33.75	-11.25
954	-41.25	3.75	-56.25	-41.25	-56.25	-22.5	-33.75	-18.75
955	-15	22.5	-48.75	-37.5	-52.5	-15	-30	-15
956	-7.5	45	-45	-33.75	-48.75	-11.25	-26.25	-11.25
957	-11.25	56.25	-45	-30	-45	-7.5	-22.5	-7.5
958	-11.25	37.5	-48.75	-30	-45	-11.25	-26.25	-7.5
959	7.5	45	-37.5	-11.25	-26.25	3.75	-7.5	7.5
960	18.75	78.75	-33.75	-3.75	-22.5	11.25	0	18.75
961	11.25	78.75	-45	-11.25	-30	3.75	-11.25	7.5
962	3.75	60	-60	-26.25	-41.25	-7.5	-22.5	0
963	3.75	56.25	-63.75	-30	-41.25	-11.25	-22.5	0
964	7.5	63.75	-60	-18.75	-33.75	3.75	-7.5	11.25
965	18.75	71.25	-52.5	-11.25	-22.5	11.25	0	18.75
966	26.25	75	-52.5	-15	-26.25	15	0	15
967	22.5	63.75	-56.25	-18.75	-30	11.25	0	11.25
968	7.5	60	-48.75	-11.25	-22.5	18.75	7.5	22.5
969	-3.75	60	-41.25	0	-11.25	30	15	26.25
970	15	63.75	-45	0	-7.5	30	15	30
971	41.25	86.25	-48.75	3.75	-11.25	26.25	15	30
972	48.75	105	-52.5	7.5	-7.5	26.25	15	33.75
973	48.75	101.25	-56.25	0	-11.25	26.25	15	30
974	52.5	90	-56.25	0	-11.25	30	18.75	33.75
975	52.5	90	-56.25	3.75	-7.5	33.75	22.5	37.5
976	37.5	90	-60	3.75	-7.5	33.75	22.5	41.25
977	37.5	82.5	-60	7.5	-3.75	33.75	26.25	41.25
978	82.5	97.5	-56.25	7.5	-3.75	37.5	30	45
979	112.5	127.5	-52.5	11.25	3.75	45	33.75	48.75
980	82.5	116.25	-52.5	15	7.5	48.75	41.25	52.5
981	41.25	75	-63.75	7.5	0	41.25	33.75	45
982	37.5	71.25	-67.5	3.75	-3.75	37.5	26.25	41.25
983	63.75	105	-63.75	15	3.75	41.25	33.75	48.75
984	75	123.75	-60	22.5	15	48.75	41.25	56.25
985	45	93.75	-71.25	11.25	3.75	41.25	33.75	48.75
986	37.5	71.25	-82.5	0	-7.5	30	26.25	41.25
987	63.75	90	-82.5	7.5	0	41.25	33.75	48.75
988	56.25	82.5	-86.25	3.75	-3.75	37.5	30	52.5
989	67.5	86.25	-82.5	7.5	0	41.25	37.5	60
990	108.75	116.25	-71.25	18.75	15	56.25	52.5	71.25
991	116.25	127.5	-71.25	15	15	56.25	52.5	71.25
992	93.75	127.5	-71.25	18.75	15	60	52.5	71.25
993	90	131.25	-67.5	22.5	18.75	63.75	60	78.75
994	93.75	135	-67.5	26.25	22.5	67.5	63.75	82.5
995	112.5	150	-67.5	30	30	71.25	67.5	90
996	142.5	161.25	-67.5	33.75	30	71.25	71.25	93.75
997	153.75	153.75	-75	30	18.75	63.75	63.75	90
998	138.75	135	-78.75	26.25	18.75	63.75	63.75	90
999	127.5	135	-82.5	22.5	18.75	63.75	63.75	90
1000	138.75	157.5	-86.25	18.75	15	63.75	63.75	90
1001	153.75	168.75	-86.25	18.75	15	63.75	63.75	93.75
1002	157.5	165	-90	15	11.25	63.75	63.75	93.75
1003	142.5	161.25	-90	15	7.5	67.5	67.5	93.75
1004	131.25	157.5	-90	15	7.5	67.5	67.5	93.75
1005	142.5	165	-90	15	3.75	60	67.5	93.75
1006	153.75	172.5	-86.25	22.5	11.25	67.5	71.25	101.25
1007	161.25	180	-86.25	26.25	15	71.25	75	108.75
1008	165	187.5	-97.5	22.5	7.5	63.75	67.5	101.25
1009	165	176.25	-101.25	15	0	52.5	63.75	97.5
1010	168.75	172.5	-97.5	15	0	56.25	63.75	101.25
1011	157.5	168.75	-97.5	15	-3.75	56.25	63.75	105
1012	146.25	161.25	-105	7.5	-11.25	48.75	56.25	97.5
1013	146.25	135	-97.5	11.25	-7.5	52.5	63.75	101.25
1014	153.75	120	-97.5	11.25	-3.75	56.25	67.5	101.25
1015	168.75	172.5	-97.5	11.25	-7.5	52.5	63.75	101.25
1016	172.5	210	-101.25	0	-18.75	41.25	52.5	90
1017	168.75	202.5	-97.5	3.75	-18.75	41.25	52.5	93.75
1018	165	206.25	-90	11.25	-11.25	48.75	60	105
1019	180	221.25	-86.25	18.75	-7.5	52.5	63.75	108.75
1020	191.25	228.75	-90	18.75	-7.5	48.75	63.75	108.75
1021	161.25	206.25	-101.25	7.5	-22.5	33.75	48.75	97.5
1022	157.5	180	-105	0	-30	26.25	48.75	93.75
1023	180	176.25	-90	15	-15	41.25	63.75	108.75
1024	172.5	183.75	-78.75	22.5	-11.25	45	63.75	116.25
1025	157.5	195	-86.25	11.25	-22.5	33.75	52.5	105
1026	165	191.25	-82.5	11.25	-22.5	37.5	56.25	101.25
1027	172.5	187.5	-71.25	18.75	-15	45	63.75	108.75
1028	168.75	195	-71.25	15	-18.75	41.25	67.5	108.75
1029	165	195	-75	15	-22.5	30	56.25	101.25
1030	150	176.25	-75	11.25	-30	18.75	37.5	90
1031	153.75	180	-67.5	15	-30	15	30	86.25
1032	157.5	195	-63.75	22.5	-30	15	30	82.5
1033	153.75	187.5	-63.75	18.75	-33.75	15	26.25	75
1034	123.75	153.75	-71.25	11.25	-41.25	7.5	22.5	63.75
1035	82.5	123.75	-75	3.75	-48.75	0	11.25	52.5
1036	71.25	120	-63.75	11.25	-45	3.75	15	56.25
1037	86.25	127.5	-56.25	11.25	-41.25	3.75	15	56.25
1038	82.5	127.5	-56.25	7.5	-45	0	7.5	48.75
1039	67.5	116.25	-56.25	0	-52.5	-3.75	0	41.25
1040	60	112.5	-52.5	3.75	-52.5	-3.75	0	37.5
1041	60	105	-41.25	7.5	-48.75	-3.75	0	37.5
1042	71.25	108.75	-33.75	15	-41.25	3.75	3.75	37.5
1043	75	131.25	-26.25	22.5	-37.5	3.75	3.75	41.25
1044	41.25	120	-30	18.75	-41.25	-7.5	-7.5	33.75
1045	30	97.5	-41.25	3.75	-56.25	-22.5	-22.5	15
1046	45	105	-37.5	0	-56.25	-26.25	-26.25	15
1047	45	116.25	-33.75	3.75	-52.5	-22.5	-26.25	15
1048	26.25	101.25	-37.5	-3.75	-60	-30	-33.75	3.75
1049	7.5	67.5	-41.25	-15	-67.5	-41.25	-45	-7.5
1050	15	75	-30	-11.25	-63.75	-33.75	-37.5	0
1051	26.25	93.75	-22.5	-7.5	-60	-22.5	-30	3.75
1052	0	75	-22.5	-11.25	-60	-26.25	-30	-3.75
1053	-22.5	56.25	-26.25	-18.75	-63.75	-30	-37.5	-11.25
1054	-33.75	48.75	-22.5	-18.75	-67.5	-33.75	-37.5	-11.25
1055	-22.5	63.75	-15	-11.25	-60	-30	-33.75	-3.75
1056	3.75	86.25	-11.25	-7.5	-56.25	-26.25	-33.75	-3.75
1057	-3.75	78.75	-26.25	-18.75	-71.25	-37.5	-41.25	-15
1058	-26.25	60	-30	-30	-78.75	-45	-48.75	-22.5
1059	-33.75	48.75	-33.75	-37.5	-86.25	-52.5	-60	-30
1060	-52.5	37.5	-33.75	-41.25	-86.25	-56.25	-63.75	-33.75
1061	-63.75	37.5	-37.5	-45	-90	-56.25	-63.75	-37.5
1062	-63.75	41.25	-37.5	-52.5	-93.75	-60	-67.5	-41.25
1063	-71.25	22.5	-48.75	-71.25	-108.75	-71.25	-78.75	-52.5
1064	-90	15	-41.25	-63.75	-105	-71.25	-78.75	-52.5
1065	-108.75	7.5	-30	-52.5	-93.75	-60	-71.25	-45
1066	-93.75	3.75	-30	-56.25	-97.5	-60	-71.25	-45
1067	-63.75	30	-26.25	-52.5	-97.5	-63.75	-71.25	-48.75
1068	-48.75	41.25	-30	-52.5	-97.5	-71.25	-82.5	-52.5
1069	-75	7.5	-37.5	-63.75	-105	-78.75	-86.25	-56.25
1070	-82.5	0	-45	-75	-112.5	-82.5	-90	-60
1071	-78.75	11.25	-45	-75	-116.25	-82.5	-86.25	-56.25
1072	-75	11.25	-41.25	-78.75	-116.25	-78.75	-82.5	-52.5
1073	-82.5	-7.5	-37.5	-75	-112.5	-71.25	-78.75	-48.75
1074	-90	0	-41.25	-78.75	-112.5	-75	-78.75	-52.5
1075	-78.75	22.5	-41.25	-82.5	-120	-75	-82.5	-56.25
1076	-67.5	26.25	-41.25	-82.5	-120	-75	-82.5	-60
1077	-82.5	11.25	-37.5	-82.5	-116.25	-75	-78.75	-56.25
1078	-86.25	7.5	-30	-71.25	-108.75	-67.5	-71.25	-45
1079	-82.5	11.25	-26.25	-63.75	-101.25	-63.75	-67.5	-41.25
1080	-90	7.5	-33.75	-67.5	-108.75	-67.5	-75	-48.75
1081	-101.25	-7.5	-52.5	-86.25	-123.75	-82.5	-90	-60
1082	-78.75	7.5	-52.5	-90	-123.75	-86.25	-93.75	-63.75
1083	-75	22.5	-48.75	-86.25	-120	-82.5	-90	-63.75
1084	-75	15	-41.25	-78.75	-116.25	-75	-86.25	-60
1085	-71.25	11.25	-41.25	-82.5	-116.25	-75	-86.25	-60
1086	-101.25	0	-45	-86.25	-116.25	-75	-82.5	-60
1087	-112.5	-3.75	-45	-86.25	-120	-75	-82.5	-60
1088	-97.5	7.5	-33.75	-75	-105	-63.75	-71.25	-48.75
1089	-101.25	11.25	-33.75	-75	-105	-63.75	-75	-52.5
1090	-105	26.25	-48.75	-82.5	-116.25	-78.75	-90	-63.75
1091	-93.75	37.5	-45	-75	-112.5	-71.25	-82.5	-60
1092	-101.25	22.5	-41.25	-71.25	-105	-71.25	-82.5	-56.25
1093	-105	15	-52.5	-82.5	-116.25	-82.5	-93.75	-67.5
1094	-90	15	-60	-86.25	-120	-86.25	-93.75	-71.25
1095	-82.5	18.75	-48.75	-71.25	-108.75	-71.25	-82.5	-56.25
1096	-82.5	33.75	-48.75	-71.25	-108.75	-71.25	-82.5	-56.25
1097	-86.25	33.75	-56.25	-78.75	-112.5	-78.75	-90	-60
1098	-78.75	30	-52.5	-82.5	-116.25	-75	-86.25	-60
1099	-75	33.75	-56.25	-86.25	-116.25	-75	-86.25	-67.5
1100	-86.25	33.75	-52.5	-78.75	-108.75	-71.25	-82.5	-60
1101	-90	33.75	-37.5	-67.5	-101.25	-60	-71.25	-48.75
1102	-93.75	37.5	-33.75	-63.75	-97.5	-60	-71.25	-48.75
1103	-78.75	45	-33.75	-56.25	-93.75	-56.25	-67.5	-45
1104	-60	56.25	-30	-52.5	-90	-52.5	-63.75	-41.25
1105	-75	45	-41.25	-60	-97.5	-60	-71.25	-48.75
1106	-101.25	15	-52.5	-75	-108.75	-71.25	-82.5	-56.25
1107	-82.5	18.75	-52.5	-71.25	-105	-67.5	-78.75	-52.5
1108	-63.75	30	-45	-67.5	-101.25	-60	-75	-48.75
1109	-60	37.5	-41.25	-63.75	-93.75	-56.25	-67.5	-45
1110	-75	33.75	-41.25	-63.75	-93.75	-52.5	-63.75	-41.25
1111	-86.25	22.5	-41.25	-67.5	-93.75	-52.5	-67.5	-45
1112	-97.5	15	-45	-67.5	-97.5	-56.25	-71.25	-48.75
1113	-86.25	22.5	-48.75	-71.25	-101.25	-60	-71.25	-48.75
1114	-90	26.25	-45	-63.75	-93.75	-52.5	-67.5	-41.25
1115	-105	18.75	-41.25	-56.25	-90	-52.5	-63.75	-41.25
1116	-71.25	33.75	-45	-60	-90	-56.25	-67.5	-45
1117	-60	33.75	-52.5	-67.5	-97.5	-63.75	-75	-52.5
1118	-82.5	18.75	-48.75	-67.5	-97.5	-63.75	-75	-52.5
1119	-75	37.5	-45	-63.75	-93.75	-56.25	-71.25	-45
1120	-52.5	52.5	-45	-63.75	-93.75	-60	-71.25	-45
1121	-63.75	33.75	-52.5	-71.25	-101.25	-67.5	-78.75	-56.25
1122	-82.5	18.75	-52.5	-75	-105	-67.5	-78.75	-56.25
1123	-75	22.5	-48.75	-78.75	-101.25	-63.75	-75	-52.5
1124	-52.5	41.25	-41.25	-67.5	-93.75	-52.5	-63.75	-41.25
1125	-60	48.75	-30	-56.25	-82.5	-45	-52.5	-33.75
1126	-75	45	-33.75	-52.5	-82.5	-45	-52.5	-37.5
1127	-63.75	52.5	-33.75	-48.75	-78.75	-45	-52.5	-33.75
1128	-67.5	45	-41.25	-52.5	-82.5	-48.75	-60	-41.25
1129	-101.25	11.25	-52.5	-67.5	-97.5	-63.75	-71.25	-52.5
1130	-127.5	-22.5	-67.5	-82.5	-112.5	-75	-86.25	-63.75
1131	-123.75	-26.25	-71.25	-86.25	-116.25	-78.75	-90	-67.5
1132	-108.75	-15	-63.75	-78.75	-108.75	-75	-82.5	-60
1133	-86.25	11.25	-60	-75	-105	-67.5	-75	-52.5
1134	-71.25	33.75	-52.5	-71.25	-97.5	-60	-67.5	-48.75
1135	-82.5	22.5	-52.5	-75	-97.5	-60	-67.5	-48.75
1136	-93.75	3.75	-52.5	-75	-97.5	-60	-67.5	-52.5
1137	-90	18.75	-48.75	-71.25	-97.5	-56.25	-67.5	-48.75
1138	-82.5	33.75	-48.75	-67.5	-93.75	-56.25	-63.75	-48.75
1139	-71.25	41.25	-41.25	-56.25	-86.25	-52.5	-60	-41.25
1140	-63.75	33.75	-45	-56.25	-86.25	-52.5	-63.75	-41.25
1141	-67.5	22.5	-52.5	-67.5	-93.75	-60	-67.5	-48.75
1142	-71.25	18.75	-56.25	-67.5	-97.5	-63.75	-67.5	-45
1143	-63.75	18.75	-48.75	-60	-90	-52.5	-56.25	-37.5
1144	-67.5	18.75	-48.75	-63.75	-90	-56.25	-56.25	-41.25
1145	-78.75	18.75	-52.5	-71.25	-97.5	-60	-63.75	-45
1146	-56.25	30	-63.75	-86.25	-112.5	-71.25	-78.75	-60
1147	-52.5	48.75	-67.5	-90	-112.5	-75	-78.75	-63.75
1148	-67.5	52.5	-52.5	-82.5	-101.25	-63.75	-67.5	-52.5
1149	-71.25	30	-60	-86.25	-108.75	-71.25	-75	-56.25
1150	-90	7.5	-63.75	-86.25	-108.75	-75	-78.75	-60
1151	-108.75	3.75	-60	-78.75	-105	-71.25	-75	-56.25
1152	-112.5	-3.75	-63.75	-82.5	-108.75	-75	-78.75	-60
1153	-108.75	-7.5	-63.75	-86.25	-108.75	-78.75	-78.75	-63.75
1154	-93.75	-3.75	-60	-82.5	-105	-75	-75	-56.25
1155	-90	7.5	-60	-78.75	-105	-71.25	-75	-52.5
1156	-93.75	-3.75	-75	-93.75	-123.75	-86.25	-86.25	-67.5
1157	-71.25	-7.5	-71.25	-97.5	-120	-86.25	-82.5	-67.5
1158	-56.25	22.5	-63.75	-90	-112.5	-75	-75	-60
1159	-75	30	-67.5	-97.5	-120	-78.75	-78.75	-63.75
1160	-101.25	7.5	-75	-105	-127.5	-90	-90	-75
1161	-93.75	7.5	-71.25	-101.25	-123.75	-86.25	-90	-71.25
1162	-75	30	-60	-86.25	-112.5	-75	-75	-56.25
1163	-71.25	33.75	-60	-82.5	-108.75	-75	-75	-56.25
1164	-78.75	22.5	-63.75	-86.25	-112.5	-78.75	-82.5	-60
1165	-75	15	-71.25	-93.75	-120	-86.25	-86.25	-67.5
1166	-86.25	7.5	-71.25	-93.75	-123.75	-86.25	-86.25	-63.75
1167	-90	11.25	-67.5	-93.75	-120	-86.25	-82.5	-63.75
1168	-78.75	22.5	-67.5	-93.75	-120	-82.5	-82.5	-63.75
1169	-78.75	18.75	-71.25	-101.25	-123.75	-86.25	-86.25	-67.5
1170	-86.25	3.75	-67.5	-101.25	-123.75	-82.5	-82.5	-63.75
1171	-82.5	0	-67.5	-105	-123.75	-82.5	-82.5	-63.75
1172	-86.25	3.75	-71.25	-105	-123.75	-82.5	-86.25	-67.5
1173	-105	-3.75	-71.25	-105	-127.5	-86.25	-86.25	-71.25
1174	-93.75	7.5	-67.5	-101.25	-123.75	-86.25	-86.25	-67.5
1175	-78.75	30	-60	-90	-112.5	-78.75	-78.75	-60
1176	-78.75	22.5	-60	-90	-116.25	-78.75	-78.75	-60
1177	-105	-11.25	-78.75	-108.75	-127.5	-93.75	-93.75	-75
1178	-131.25	-30	-82.5	-112.5	-135	-97.5	-101.25	-78.75
1179	-101.25	-7.5	-78.75	-112.5	-131.25	-93.75	-97.5	-75
1180	-90	3.75	-71.25	-105	-123.75	-86.25	-90	-67.5
1181	-112.5	-26.25	-78.75	-116.25	-131.25	-97.5	-97.5	-75
1182	-123.75	-45	-90	-127.5	-142.5	-105	-108.75	-86.25
1183	-105	-18.75	-75	-116.25	-131.25	-90	-93.75	-75
1184	-90	3.75	-67.5	-108.75	-123.75	-86.25	-90	-67.5
1185	-93.75	0	-67.5	-108.75	-123.75	-86.25	-90	-67.5
1186	-90	0	-63.75	-105	-123.75	-82.5	-90	-67.5
1187	-90	7.5	-63.75	-101.25	-120	-82.5	-86.25	-63.75
1188	-97.5	3.75	-67.5	-101.25	-123.75	-90	-90	-67.5
1189	-90	0	-71.25	-108.75	-127.5	-93.75	-97.5	-75
1190	-93.75	0	-71.25	-108.75	-127.5	-90	-93.75	-71.25
1191	-93.75	0	-71.25	-108.75	-127.5	-90	-97.5	-71.25
1192	-82.5	-3.75	-78.75	-116.25	-135	-97.5	-105	-78.75
1193	-86.25	-11.25	-78.75	-120	-138.75	-101.25	-105	-82.5
1194	-90	-11.25	-78.75	-120	-138.75	-101.25	-105	-82.5
1195	-86.25	0	-78.75	-123.75	-138.75	-101.25	-105	-82.5
1196	-82.5	3.75	-67.5	-116.25	-131.25	-90	-93.75	-75
1197	-86.25	3.75	-63.75	-112.5	-123.75	-90	-93.75	-75
1198	-78.75	18.75	-60	-101.25	-116.25	-78.75	-86.25	-67.5
1199	-63.75	30	-60	-97.5	-112.5	-78.75	-82.5	-63.75
1200	-48.75	30	-71.25	-105	-123.75	-93.75	-93.75	-71.25
1201	-52.5	22.5	-75	-112.5	-131.25	-97.5	-97.5	-75
1202	-93.75	-11.25	-82.5	-120	-135	-105	-105	-82.5
1203	-135	-52.5	-93.75	-131.25	-150	-116.25	-116.25	-93.75
1204	-138.75	-60	-90	-131.25	-150	-116.25	-116.25	-93.75
1205	-127.5	-45	-86.25	-127.5	-142.5	-108.75	-112.5	-90
1206	-120	-37.5	-86.25	-127.5	-142.5	-108.75	-112.5	-90
1207	-116.25	-30	-82.5	-127.5	-142.5	-108.75	-108.75	-90
1208	-120	-15	-75	-123.75	-135	-101.25	-105	-86.25
1209	-112.5	0	-63.75	-108.75	-123.75	-90	-93.75	-75
1210	-131.25	-26.25	-63.75	-108.75	-123.75	-93.75	-97.5	-78.75
1211	-127.5	-37.5	-75	-116.25	-131.25	-105	-108.75	-90
1212	-93.75	-18.75	-78.75	-116.25	-135	-108.75	-108.75	-90
1213	-78.75	-3.75	-78.75	-116.25	-135	-108.75	-105	-86.25
1214	-82.5	-7.5	-71.25	-108.75	-127.5	-97.5	-97.5	-75
1215	-97.5	-18.75	-71.25	-112.5	-127.5	-97.5	-97.5	-75
1216	-105	-18.75	-71.25	-112.5	-127.5	-97.5	-97.5	-78.75
1217	-93.75	-22.5	-71.25	-116.25	-131.25	-101.25	-101.25	-86.25
1218	-86.25	-26.25	-75	-120	-131.25	-101.25	-105	-86.25
1219	-86.25	-18.75	-67.5	-116.25	-127.5	-97.5	-101.25	-82.5
1220	-93.75	-3.75	-67.5	-112.5	-123.75	-93.75	-97.5	-82.5
1221	-101.25	7.5	-63.75	-105	-120	-90	-93.75	-78.75
1222	-97.5	11.25	-60	-101.25	-116.25	-86.25	-90	-71.25
1223	-82.5	0	-52.5	-90	-105	-75	-78.75	-60
1224	-75	-11.25	-48.75	-86.25	-105	-75	-78.75	-60
1225	-78.75	11.25	-52.5	-90	-108.75	-78.75	-82.5	-63.75
1226	-75	37.5	-63.75	-97.5	-112.5	-86.25	-90	-71.25
1227	-67.5	48.75	-60	-93.75	-108.75	-78.75	-82.5	-63.75
1228	-56.25	52.5	-45	-82.5	-97.5	-67.5	-71.25	-52.5
1229	-45	52.5	-41.25	-78.75	-93.75	-63.75	-71.25	-52.5
1230	-41.25	52.5	-30	-75	-90	-56.25	-63.75	-45
1231	-56.25	48.75	-30	-75	-90	-56.25	-63.75	-48.75
1232	-97.5	22.5	-33.75	-82.5	-97.5	-63.75	-71.25	-60
1233	-116.25	7.5	-30	-82.5	-97.5	-67.5	-78.75	-63.75
1234	-116.25	11.25	-18.75	-67.5	-90	-60	-71.25	-56.25
1235	-123.75	7.5	-18.75	-63.75	-90	-63.75	-75	-60
1236	-101.25	18.75	-18.75	-60	-90	-63.75	-75	-60
1237	-67.5	41.25	-11.25	-52.5	-78.75	-60	-67.5	-52.5
1238	-52.5	45	-15	-56.25	-78.75	-56.25	-67.5	-52.5
1239	-63.75	33.75	-18.75	-52.5	-78.75	-56.25	-67.5	-52.5
1240	-78.75	33.75	-7.5	-45	-71.25	-48.75	-63.75	-45
1241	-93.75	33.75	0	-41.25	-67.5	-45	-60	-45
1242	-90	33.75	3.75	-41.25	-67.5	-45	-60	-45
1243	-78.75	45	7.5	-37.5	-63.75	-37.5	-52.5	-37.5
1244	-63.75	60	7.5	-33.75	-60	-33.75	-48.75	-33.75
1245	-67.5	60	0	-37.5	-63.75	-37.5	-52.5	-37.5
1246	-78.75	60	-7.5	-41.25	-63.75	-37.5	-52.5	-33.75
1247	-60	82.5	-11.25	-33.75	-52.5	-30	-41.25	-22.5
1248	-41.25	97.5	-18.75	-30	-48.75	-22.5	-37.5	-18.75
1249	-33.75	93.75	-37.5	-41.25	-56.25	-26.25	-41.25	-18.75
1250	-26.25	86.25	-56.25	-52.5	-60	-33.75	-45	-22.5
1251	-18.75	78.75	-71.25	-60	-67.5	-37.5	-45	-26.25
1252	-18.75	71.25	-71.25	-63.75	-71.25	-37.5	-45	-26.25
1253	-22.5	63.75	-71.25	-67.5	-71.25	-37.5	-48.75	-30
1254	-18.75	63.75	-75	-75	-75	-41.25	-52.5	-26.25
1255	-18.75	67.5	-82.5	-86.25	-82.5	-45	-56.25	-30
1256	-37.5	52.5	-93.75	-93.75	-93.75	-52.5	-63.75	-37.5
1257	-60	37.5	-93.75	-101.25	-101.25	-60	-67.5	-45
1258	-67.5	33.75	-86.25	-97.5	-97.5	-60	-67.5	-45
1259	-45	48.75	-82.5	-93.75	-97.5	-60	-71.25	-41.25
1260	-26.25	48.75	-90	-101.25	-105	-71.25	-78.75	-48.75
1261	-30	37.5	-97.5	-108.75	-112.5	-78.75	-86.25	-56.25
1262	-48.75	37.5	-90	-101.25	-105	-71.25	-82.5	-52.5
1263	-41.25	48.75	-78.75	-90	-97.5	-63.75	-75	-48.75
1264	-26.25	37.5	-78.75	-93.75	-97.5	-63.75	-75	-48.75
1265	-33.75	22.5	-78.75	-97.5	-101.25	-67.5	-78.75	-52.5
1266	-33.75	30	-78.75	-101.25	-105	-67.5	-82.5	-52.5
1267	-48.75	30	-67.5	-93.75	-97.5	-60	-75	-48.75
1268	-78.75	15	-63.75	-93.75	-97.5	-60	-75	-52.5
1269	-90	-7.5	-71.25	-101.25	-108.75	-71.25	-86.25	-63.75
1270	-71.25	0	-71.25	-101.25	-108.75	-71.25	-86.25	-63.75
1271	-63.75	22.5	-67.5	-93.75	-105	-71.25	-82.5	-60
1272	-90	3.75	-71.25	-97.5	-112.5	-78.75	-90	-67.5
1273	-93.75	-7.5	-71.25	-105	-116.25	-86.25	-97.5	-71.25
1274	-78.75	3.75	-75	-112.5	-123.75	-90	-105	-78.75
1275	-67.5	3.75	-82.5	-116.25	-135	-101.25	-112.5	-86.25
1276	-90	-22.5	-86.25	-123.75	-142.5	-105	-120	-93.75
1277	-97.5	-30	-86.25	-131.25	-146.25	-108.75	-123.75	-97.5
1278	-93.75	-33.75	-82.5	-127.5	-142.5	-105	-120	-93.75
1279	-101.25	-37.5	-78.75	-123.75	-135	-97.5	-116.25	-93.75
1280	-120	-37.5	-78.75	-123.75	-135	-101.25	-123.75	-97.5
1281	-108.75	-33.75	-82.5	-127.5	-142.5	-108.75	-123.75	-101.25
1282	-97.5	-33.75	-75	-116.25	-131.25	-97.5	-112.5	-90
1283	-93.75	-37.5	-71.25	-105	-120	-90	-105	-82.5
1284	-97.5	-37.5	-75	-112.5	-131.25	-101.25	-116.25	-90
1285	-105	-30	-90	-127.5	-142.5	-112.5	-127.5	-97.5
1286	-105	-37.5	-90	-123.75	-138.75	-105	-120	-93.75
1287	-108.75	-52.5	-82.5	-116.25	-131.25	-101.25	-112.5	-90
1288	-131.25	-63.75	-86.25	-123.75	-138.75	-108.75	-123.75	-101.25
1289	-123.75	-56.25	-90	-131.25	-146.25	-112.5	-127.5	-105
1290	-105	-45	-86.25	-135	-146.25	-112.5	-131.25	-105
1291	-105	-37.5	-82.5	-127.5	-142.5	-108.75	-127.5	-101.25
1292	-108.75	-37.5	-71.25	-116.25	-131.25	-97.5	-116.25	-93.75
1293	-112.5	-41.25	-67.5	-112.5	-127.5	-93.75	-112.5	-90
1294	-101.25	-30	-71.25	-112.5	-127.5	-93.75	-112.5	-90
1295	-90	-11.25	-63.75	-101.25	-120	-86.25	-105	-82.5
1296	-97.5	-18.75	-67.5	-105	-127.5	-93.75	-112.5	-86.25
1297	-108.75	-33.75	-75	-112.5	-131.25	-97.5	-116.25	-93.75
1298	-105	-30	-67.5	-105	-120	-86.25	-105	-82.5
1299	-108.75	-41.25	-71.25	-108.75	-127.5	-93.75	-112.5	-90
1300	-108.75	-48.75	-75	-116.25	-138.75	-108.75	-127.5	-105
1301	-101.25	-52.5	-71.25	-112.5	-138.75	-116.25	-138.75	-116.25
1302	-93.75	-63.75	-41.25	-82.5	-131.25	-116.25	-146.25	-131.25
1303	-108.75	-86.25	11.25	-33.75	-112.5	-120	-157.5	-146.25
1304	-123.75	-112.5	56.25	7.5	-108.75	-138.75	-187.5	-180
1305	-112.5	-120	108.75	56.25	-97.5	-150	-206.25	-202.5
1306	-101.25	-105	157.5	108.75	-75	-146.25	-210	-206.25
1307	-78.75	-86.25	180	150	-56.25	-138.75	-210	-206.25
1308	-60	-52.5	206.25	213.75	-7.5	-108.75	-183.75	-183.75
1309	-48.75	-11.25	240	288.75	60	-52.5	-135	-138.75
1310	-18.75	22.5	255	345	116.25	-3.75	-90	-97.5
1311	67.5	90	270	397.5	172.5	56.25	-30	-48.75
1312	142.5	157.5	262.5	423.75	213.75	108.75	22.5	3.75
1313	198.75	221.25	255	457.5	266.25	176.25	93.75	75
1314	281.25	315	247.5	517.5	356.25	277.5	202.5	180
1315	360	431.25	228.75	558.75	442.5	386.25	318.75	292.5
1316	420	547.5	195	573.75	521.25	502.5	442.5	416.25
1317	506.25	678.75	135	562.5	592.5	618.75	573.75	547.5
1318	592.5	858.75	123.75	622.5	723.75	787.5	750	720
1319	641.25	1050	120	697.5	862.5	960	933.75	900
1320	675	1241.25	37.5	667.5	941.25	1110	1117.5	1091.25
1321	720	1417.5	-90	596.25	1001.25	1260	1305	1290
1322	780	1492.5	-217.5	498.75	1027.5	1365	1436.25	1421.25
1323	817.5	1530	-333.75	352.5	1012.5	1432.5	1533.75	1518.75
1324	813.75	1563.75	-386.25	266.25	1035	1511.25	1620	1597.5
1325	723.75	1488.75	-363.75	277.5	1098.75	1582.5	1665	1605
1326	600	1380	-356.25	255	1136.25	1627.5	1683.75	1582.5
1327	487.5	1305	-390	146.25	1102.5	1612.5	1653.75	1541.25
1328	405	1211.25	-420	11.25	1001.25	1503.75	1545	1432.5
1329	300	1057.5	-397.5	-93.75	855	1312.5	1346.25	1248.75
1330	142.5	873.75	-341.25	-168.75	682.5	1065	1087.5	1020
1331	-7.5	697.5	-322.5	-285	442.5	768.75	806.25	787.5
1332	-105	540	-348.75	-435	180	468.75	528.75	570
1333	-183.75	405	-371.25	-566.25	-33.75	232.5	307.5	378.75
1334	-240	288.75	-360	-603.75	-138.75	93.75	153.75	225
1335	-270	172.5	-330	-573.75	-161.25	30	60	112.5
1336	-266.25	93.75	-330	-547.5	-168.75	-3.75	3.75	41.25
1337	-266.25	48.75	-341.25	-517.5	-165	-11.25	-15	15
1338	-258.75	30	-337.5	-468.75	-142.5	3.75	-3.75	18.75
1339	-228.75	30	-326.25	-427.5	-146.25	-3.75	-3.75	22.5
1340	-202.5	18.75	-311.25	-401.25	-168.75	-33.75	-22.5	11.25
1341	-176.25	15	-288.75	-363.75	-172.5	-52.5	-37.5	0
1342	-153.75	37.5	-262.5	-311.25	-153.75	-45	-33.75	0
1343	-127.5	63.75	-240	-258.75	-127.5	-33.75	-30	3.75
1344	-78.75	90	-210	-191.25	-78.75	-7.5	-11.25	22.5
1345	-41.25	101.25	-180	-131.25	-33.75	26.25	11.25	33.75
1346	-37.5	105	-131.25	-75	3.75	52.5	33.75	48.75
1347	-41.25	112.5	-93.75	-41.25	22.5	63.75	33.75	52.5
1348	-18.75	108.75	-75	-30	22.5	56.25	26.25	37.5
1349	-22.5	75	-78.75	-33.75	11.25	41.25	7.5	18.75
1350	-48.75	37.5	-75	-33.75	3.75	33.75	-3.75	7.5
1351	-45	33.75	-67.5	-33.75	-3.75	26.25	-7.5	0
1352	-30	41.25	-60	-30	-7.5	18.75	-15	-3.75
1353	-52.5	30	-60	-30	-15	11.25	-26.25	-15
1354	-48.75	41.25	-60	-30	-18.75	3.75	-30	-22.5
1355	-26.25	56.25	-48.75	-18.75	-15	3.75	-30	-15
1356	-30	41.25	-48.75	-15	-15	0	-33.75	-18.75
1357	-45	18.75	-56.25	-30	-30	-15	-45	-30
1358	-48.75	11.25	-56.25	-30	-33.75	-18.75	-52.5	-33.75
1359	-52.5	0	-60	-37.5	-41.25	-26.25	-56.25	-41.25
1360	-41.25	7.5	-63.75	-37.5	-48.75	-30	-60	-45
1361	-30	18.75	-56.25	-30	-41.25	-22.5	-52.5	-37.5
1362	-37.5	18.75	-48.75	-30	-37.5	-18.75	-48.75	-37.5
1363	-33.75	26.25	-48.75	-30	-41.25	-22.5	-52.5	-37.5
1364	-26.25	30	-45	-26.25	-37.5	-18.75	-48.75	-33.75
1365	-45	7.5	-45	-18.75	-37.5	-18.75	-48.75	-37.5
1366	-52.5	11.25	-45	-15	-33.75	-18.75	-52.5	-37.5
1367	-41.25	33.75	-45	-11.25	-30	-18.75	-52.5	-33.75
1368	-41.25	18.75	-48.75	-15	-33.75	-22.5	-52.5	-33.75
1369	-60	-3.75	-56.25	-22.5	-41.25	-30	-63.75	-37.5
1370	-67.5	-3.75	-56.25	-22.5	-45	-33.75	-63.75	-41.25
1371	-60	-3.75	-67.5	-30	-52.5	-37.5	-71.25	-48.75
1372	-41.25	7.5	-60	-26.25	-45	-33.75	-67.5	-45
1373	-33.75	0	-60	-26.25	-45	-30	-63.75	-41.25
1374	-26.25	3.75	-56.25	-26.25	-41.25	-26.25	-56.25	-37.5
1375	-26.25	18.75	-52.5	-18.75	-37.5	-18.75	-52.5	-33.75
1376	-33.75	15	-41.25	-7.5	-22.5	-7.5	-37.5	-22.5
1377	-26.25	11.25	-37.5	0	-18.75	0	-33.75	-15
1378	3.75	33.75	-45	0	-22.5	-7.5	-37.5	-18.75
1379	11.25	56.25	-41.25	7.5	-15	-3.75	-33.75	-15
1380	11.25	60	-41.25	11.25	-15	-3.75	-33.75	-11.25
1381	7.5	45	-48.75	3.75	-15	-3.75	-33.75	-15
1382	3.75	37.5	-48.75	3.75	-15	0	-33.75	-11.25
1383	3.75	41.25	-45	3.75	-11.25	3.75	-30	-11.25
1384	3.75	30	-56.25	-3.75	-22.5	-11.25	-45	-26.25
1385	11.25	30	-48.75	0	-18.75	-3.75	-33.75	-22.5
1386	26.25	45	-41.25	7.5	-11.25	7.5	-22.5	-11.25
1387	3.75	41.25	-41.25	11.25	-7.5	15	-18.75	-3.75
1388	-26.25	-3.75	-52.5	3.75	-11.25	7.5	-22.5	-7.5
1389	-7.5	-3.75	-52.5	7.5	-7.5	11.25	-18.75	-3.75
1390	15	48.75	-52.5	11.25	-3.75	15	-15	0
1391	18.75	75	-60	11.25	-7.5	11.25	-18.75	0
1392	48.75	93.75	-56.25	18.75	0	15	-15	3.75
1393	37.5	82.5	-52.5	22.5	3.75	18.75	-11.25	3.75
1394	0	45	-56.25	18.75	0	11.25	-18.75	-3.75
1395	15	45	-67.5	11.25	-7.5	3.75	-26.25	-7.5
1396	52.5	75	-60	18.75	0	15	-15	3.75
1397	37.5	52.5	-60	18.75	0	15	-11.25	7.5
1398	30	48.75	-56.25	22.5	7.5	22.5	-7.5	7.5
1399	33.75	63.75	-48.75	26.25	11.25	30	-3.75	7.5
1400	18.75	52.5	-48.75	30	11.25	30	-7.5	7.5
1401	18.75	52.5	-45	37.5	22.5	37.5	0	18.75
1402	41.25	75	-48.75	41.25	26.25	37.5	3.75	18.75
1403	63.75	86.25	-56.25	41.25	22.5	33.75	3.75	15
1404	75	75	-67.5	37.5	15	30	-3.75	11.25
1405	78.75	82.5	-60	41.25	22.5	37.5	3.75	18.75
1406	86.25	97.5	-48.75	52.5	37.5	52.5	18.75	33.75
1407	101.25	105	-48.75	56.25	41.25	56.25	26.25	41.25
1408	82.5	86.25	-63.75	41.25	30	48.75	15	33.75
1409	37.5	56.25	-75	26.25	15	37.5	3.75	18.75
1410	33.75	52.5	-71.25	30	18.75	41.25	11.25	18.75
1411	48.75	60	-67.5	37.5	30	48.75	18.75	26.25
1412	56.25	63.75	-63.75	45	30	52.5	22.5	33.75
1413	67.5	78.75	-60	52.5	37.5	60	30	41.25
1414	78.75	97.5	-52.5	60	45	63.75	30	45
1415	78.75	93.75	-56.25	63.75	45	60	33.75	48.75
1416	78.75	71.25	-67.5	56.25	37.5	52.5	26.25	41.25
1417	93.75	90	-63.75	52.5	37.5	56.25	26.25	37.5
1418	101.25	120	-63.75	60	41.25	60	30	45
1419	105	123.75	-67.5	60	45	67.5	37.5	52.5
1420	116.25	97.5	-71.25	56.25	45	67.5	37.5	52.5
1421	116.25	90	-75	48.75	37.5	60	33.75	48.75
1422	105	108.75	-67.5	52.5	45	67.5	37.5	56.25
1423	108.75	120	-63.75	60	48.75	71.25	45	63.75
1424	123.75	120	-56.25	67.5	56.25	78.75	52.5	71.25
1425	150	131.25	-52.5	71.25	60	82.5	56.25	75
1426	161.25	146.25	-56.25	75	60	78.75	52.5	71.25
1427	131.25	127.5	-56.25	78.75	60	78.75	56.25	75
1428	101.25	97.5	-71.25	67.5	48.75	71.25	48.75	71.25
1429	123.75	101.25	-78.75	60	41.25	67.5	45	67.5
1430	131.25	108.75	-86.25	52.5	37.5	63.75	45	63.75
1431	127.5	120	-82.5	60	45	67.5	52.5	78.75
1432	146.25	127.5	-82.5	56.25	45	67.5	52.5	78.75
1433	146.25	120	-78.75	56.25	41.25	67.5	52.5	82.5
1434	142.5	123.75	-75	56.25	45	75	60	86.25
1435	165	146.25	-67.5	60	48.75	78.75	67.5	90
1436	165	157.5	-67.5	63.75	48.75	78.75	63.75	90
1437	168.75	168.75	-71.25	60	45	71.25	60	86.25
1438	191.25	187.5	-63.75	67.5	48.75	78.75	67.5	93.75
1439	183.75	180	-63.75	71.25	52.5	78.75	71.25	97.5
1440	172.5	153.75	-71.25	63.75	41.25	71.25	63.75	93.75
1441	183.75	153.75	-75	60	37.5	71.25	60	90
1442	198.75	172.5	-71.25	60	41.25	75	67.5	97.5
1443	168.75	153.75	-78.75	52.5	30	67.5	60	90
1444	146.25	123.75	-86.25	45	22.5	56.25	52.5	82.5
1445	153.75	116.25	-86.25	45	22.5	56.25	52.5	86.25
1446	165	135	-75	52.5	30	67.5	63.75	97.5
1447	172.5	142.5	-71.25	56.25	33.75	67.5	67.5	101.25
1448	172.5	150	-78.75	45	18.75	52.5	52.5	86.25
1449	176.25	172.5	-78.75	48.75	18.75	52.5	48.75	82.5
1450	191.25	187.5	-71.25	67.5	33.75	63.75	63.75	97.5
1451	213.75	206.25	-67.5	71.25	37.5	63.75	63.75	97.5
1452	187.5	191.25	-82.5	56.25	15	45	45	82.5
1453	180	168.75	-82.5	48.75	7.5	37.5	41.25	82.5
1454	191.25	161.25	-78.75	48.75	3.75	37.5	37.5	78.75
1455	172.5	157.5	-78.75	45	3.75	33.75	33.75	75
1456	157.5	146.25	-78.75	41.25	-3.75	26.25	26.25	67.5
1457	153.75	135	-78.75	37.5	-7.5	22.5	22.5	63.75
1458	161.25	142.5	-67.5	41.25	-3.75	30	30	71.25
1459	165	142.5	-63.75	48.75	0	30	33.75	71.25
1460	157.5	142.5	-52.5	56.25	7.5	33.75	37.5	75
1461	146.25	131.25	-48.75	56.25	7.5	30	30	67.5
1462	150	138.75	-41.25	63.75	11.25	30	33.75	71.25
1463	153.75	165	-37.5	67.5	11.25	30	30	67.5
1464	150	153.75	-33.75	71.25	11.25	26.25	22.5	60
1465	135	120	-37.5	63.75	7.5	18.75	18.75	56.25
1466	116.25	116.25	-33.75	60	3.75	15	15	52.5
1467	123.75	138.75	-30	63.75	7.5	18.75	15	48.75
1468	131.25	135	-26.25	67.5	11.25	18.75	15	45
1469	123.75	116.25	-26.25	63.75	3.75	11.25	3.75	33.75
1470	112.5	116.25	-18.75	60	0	7.5	0	30
1471	82.5	101.25	-18.75	60	0	7.5	0	26.25
1472	67.5	82.5	-18.75	56.25	-3.75	0	-7.5	18.75
1473	67.5	90	-3.75	67.5	7.5	7.5	-3.75	22.5
1474	41.25	86.25	3.75	75	15	11.25	0	26.25
1475	52.5	93.75	3.75	78.75	15	11.25	0	26.25
1476	78.75	112.5	0	75	7.5	3.75	-7.5	18.75
1477	52.5	90	-11.25	56.25	-7.5	-11.25	-26.25	0
1478	30	75	-15	45	-15	-15	-33.75	-7.5
1479	37.5	82.5	-7.5	52.5	-7.5	-7.5	-26.25	0
1480	26.25	67.5	-3.75	52.5	-7.5	-7.5	-26.25	-3.75
1481	15	52.5	0	45	-7.5	-7.5	-26.25	-3.75
1482	18.75	52.5	-7.5	37.5	-15	-15	-33.75	-11.25
1483	0	41.25	3.75	41.25	-11.25	-15	-30	-7.5
1484	-18.75	33.75	11.25	45	-11.25	-11.25	-33.75	-11.25
1485	-22.5	30	3.75	37.5	-18.75	-18.75	-41.25	-22.5
1486	-3.75	45	3.75	37.5	-18.75	-22.5	-45	-26.25
1487	22.5	71.25	11.25	45	-11.25	-22.5	-45	-22.5
1488	18.75	67.5	11.25	45	-15	-26.25	-48.75	-22.5
1489	-11.25	45	7.5	37.5	-18.75	-30	-52.5	-30
1490	-30	33.75	0	30	-22.5	-33.75	-56.25	-33.75
1491	-30	15	-3.75	22.5	-30	-37.5	-60	-37.5
1492	-37.5	-3.75	-3.75	18.75	-30	-37.5	-63.75	-45
1493	-52.5	-15	0	15	-30	-37.5	-63.75	-41.25
1494	-52.5	-30	0	15	-33.75	-37.5	-60	-41.25
1495	-71.25	-45	0	11.25	-33.75	-37.5	-60	-41.25
1496	-75	-26.25	-3.75	3.75	-41.25	-48.75	-71.25	-52.5
1497	-41.25	18.75	-3.75	3.75	-41.25	-48.75	-71.25	-52.5
1498	-26.25	37.5	3.75	11.25	-33.75	-37.5	-60	-45
1499	-45	33.75	7.5	15	-30	-37.5	-60	-45
1500	-63.75	3.75	-11.25	-3.75	-48.75	-56.25	-75	-60
1501	-60	-18.75	-18.75	-15	-60	-63.75	-82.5	-67.5
1502	-52.5	-3.75	-11.25	-11.25	-56.25	-60	-82.5	-67.5
1503	-52.5	7.5	-7.5	-11.25	-52.5	-60	-78.75	-67.5
1504	-52.5	-7.5	-11.25	-15	-56.25	-63.75	-82.5	-67.5
1505	-63.75	-30	-11.25	-18.75	-56.25	-60	-82.5	-67.5
1506	-48.75	-22.5	-7.5	-18.75	-56.25	-56.25	-78.75	-60
1507	-48.75	-11.25	-3.75	-15	-52.5	-52.5	-75	-56.25
1508	-56.25	-3.75	0	-7.5	-45	-45	-63.75	-48.75
1509	-37.5	7.5	0	-7.5	-45	-45	-63.75	-48.75
1510	-48.75	11.25	3.75	-11.25	-48.75	-52.5	-71.25	-52.5
1511	-71.25	-11.25	-3.75	-11.25	-52.5	-60	-78.75	-60
1512	-78.75	-26.25	-3.75	-11.25	-52.5	-60	-78.75	-60
1513	-71.25	-11.25	-11.25	-15	-56.25	-60	-82.5	-63.75
1514	-56.25	-7.5	-15	-22.5	-60	-63.75	-82.5	-63.75
1515	-56.25	-11.25	-7.5	-15	-48.75	-56.25	-75	-52.5
1516	-60	-3.75	0	-11.25	-45	-52.5	-71.25	-52.5
1517	-63.75	-11.25	-11.25	-22.5	-56.25	-63.75	-82.5	-63.75
1518	-78.75	-18.75	-18.75	-30	-63.75	-67.5	-86.25	-71.25
1519	-105	-37.5	-15	-26.25	-60	-67.5	-86.25	-67.5
1520	-90	-37.5	-7.5	-11.25	-48.75	-56.25	-78.75	-60
1521	-67.5	-11.25	0	-3.75	-37.5	-45	-67.5	-52.5
1522	-67.5	0	7.5	7.5	-30	-37.5	-60	-45
1523	-78.75	-15	3.75	7.5	-30	-41.25	-63.75	-48.75
1524	-90	-26.25	-11.25	-11.25	-45	-56.25	-75	-60
1525	-108.75	-30	-18.75	-18.75	-56.25	-63.75	-86.25	-71.25
1526	-112.5	-22.5	-7.5	-11.25	-48.75	-56.25	-78.75	-67.5
1527	-82.5	-11.25	-3.75	-3.75	-41.25	-48.75	-71.25	-60
1528	-56.25	3.75	-3.75	0	-33.75	-41.25	-67.5	-56.25
1529	-52.5	7.5	3.75	7.5	-26.25	-33.75	-60	-48.75
1530	-52.5	-11.25	-3.75	-3.75	-33.75	-41.25	-67.5	-56.25
1531	-60	-15	-7.5	-3.75	-37.5	-45	-71.25	-60
1532	-63.75	3.75	0	3.75	-30	-37.5	-63.75	-52.5
1533	-56.25	11.25	0	7.5	-26.25	-30	-60	-48.75
1534	-52.5	18.75	3.75	15	-22.5	-30	-56.25	-45
1535	-63.75	26.25	3.75	18.75	-18.75	-30	-52.5	-41.25
1536	-67.5	11.25	-3.75	15	-18.75	-30	-56.25	-41.25
1537	-71.25	-11.25	-15	3.75	-30	-37.5	-63.75	-48.75
1538	-60	-11.25	-18.75	0	-30	-41.25	-63.75	-48.75
1539	-45	-3.75	-18.75	-3.75	-33.75	-41.25	-63.75	-52.5
1540	-30	3.75	-15	-3.75	-33.75	-41.25	-63.75	-52.5
1541	-41.25	-3.75	-15	0	-30	-37.5	-60	-48.75
1542	-52.5	3.75	-7.5	3.75	-26.25	-30	-52.5	-41.25
1543	-37.5	30	0	7.5	-22.5	-26.25	-48.75	-41.25
1544	-18.75	37.5	3.75	15	-18.75	-26.25	-48.75	-37.5
1545	-37.5	11.25	-3.75	7.5	-22.5	-33.75	-60	-45
1546	-67.5	3.75	-11.25	7.5	-26.25	-37.5	-63.75	-45
1547	-75	0	-11.25	11.25	-22.5	-37.5	-63.75	-41.25
1548	-48.75	7.5	-15	7.5	-26.25	-41.25	-63.75	-45
1549	-26.25	26.25	-15	3.75	-26.25	-37.5	-63.75	-41.25
1550	-45	7.5	-18.75	0	-26.25	-41.25	-63.75	-45
1551	-48.75	0	-15	7.5	-22.5	-37.5	-63.75	-41.25
1552	-56.25	-3.75	-7.5	11.25	-18.75	-33.75	-60	-41.25
1553	-60	-11.25	-7.5	7.5	-18.75	-30	-60	-41.25
1554	-48.75	-11.25	-15	-3.75	-30	-37.5	-63.75	-48.75
1555	-60	-15	-18.75	-7.5	-33.75	-41.25	-71.25	-52.5
1556	-67.5	-11.25	-7.5	7.5	-18.75	-30	-56.25	-41.25
1557	-60	3.75	-3.75	15	-15	-26.25	-52.5	-33.75
1558	-56.25	18.75	-7.5	18.75	-11.25	-26.25	-52.5	-33.75
1559	-48.75	26.25	-3.75	26.25	-7.5	-22.5	-48.75	-30
1560	-60	0	-15	11.25	-18.75	-33.75	-60	-41.25
1561	-82.5	-30	-18.75	3.75	-22.5	-37.5	-63.75	-45
1562	-78.75	-26.25	-18.75	3.75	-26.25	-37.5	-67.5	-45
1563	-67.5	-15	-26.25	-3.75	-30	-45	-71.25	-48.75
1564	-52.5	-3.75	-22.5	-3.75	-26.25	-37.5	-63.75	-45
1565	-41.25	-7.5	-26.25	-7.5	-26.25	-37.5	-63.75	-45
1566	-41.25	-7.5	-26.25	-11.25	-30	-41.25	-67.5	-48.75
1567	-56.25	-3.75	-18.75	-7.5	-26.25	-37.5	-63.75	-41.25
1568	-60	0	-15	0	-22.5	-33.75	-56.25	-37.5
1569	-37.5	22.5	-15	3.75	-18.75	-30	-52.5	-33.75
1570	-18.75	41.25	-7.5	11.25	-11.25	-26.25	-48.75	-26.25
1571	-7.5	45	-7.5	18.75	-7.5	-22.5	-41.25	-18.75
1572	-15	33.75	-15	7.5	-18.75	-30	-48.75	-26.25
1573	-45	15	-30	-7.5	-37.5	-48.75	-67.5	-45
1574	-67.5	-3.75	-30	-11.25	-41.25	-52.5	-71.25	-48.75
1575	-78.75	-26.25	-33.75	-15	-41.25	-52.5	-71.25	-48.75
1576	-82.5	-41.25	-37.5	-22.5	-45	-56.25	-75	-52.5
1577	-90	-48.75	-33.75	-18.75	-41.25	-52.5	-71.25	-48.75
1578	-75	-41.25	-22.5	-11.25	-33.75	-41.25	-60	-37.5
1579	-67.5	-22.5	-18.75	-3.75	-26.25	-33.75	-52.5	-30
1580	-71.25	-15	-22.5	-7.5	-30	-37.5	-56.25	-37.5
1581	-52.5	-11.25	-26.25	-11.25	-33.75	-45	-63.75	-41.25
1582	-52.5	0	-22.5	-7.5	-33.75	-45	-60	-37.5
1583	-52.5	7.5	-30	-11.25	-37.5	-52.5	-67.5	-45
1584	-15	22.5	-41.25	-18.75	-45	-56.25	-71.25	-45
1585	0	18.75	-45	-22.5	-45	-52.5	-67.5	-41.25
1586	-37.5	0	-41.25	-22.5	-45	-56.25	-71.25	-45
1587	-63.75	-11.25	-45	-26.25	-52.5	-67.5	-82.5	-56.25
1588	-67.5	-18.75	-41.25	-30	-56.25	-67.5	-86.25	-60
1589	-71.25	-22.5	-37.5	-30	-48.75	-56.25	-75	-52.5
1590	-75	-22.5	-37.5	-33.75	-52.5	-56.25	-75	-48.75
1591	-63.75	-11.25	-37.5	-30	-48.75	-52.5	-71.25	-48.75
1592	-71.25	-11.25	-37.5	-26.25	-45	-52.5	-71.25	-48.75
1593	-86.25	-22.5	-41.25	-33.75	-52.5	-63.75	-78.75	-56.25
1594	-71.25	-11.25	-30	-18.75	-41.25	-52.5	-67.5	-41.25
1595	-52.5	0	-30	-15	-41.25	-52.5	-63.75	-37.5
1596	-48.75	0	-37.5	-26.25	-48.75	-60	-71.25	-45
1597	-52.5	-7.5	-37.5	-30	-52.5	-63.75	-75	-48.75
1598	-60	-11.25	-33.75	-26.25	-48.75	-60	-75	-45
1599	-52.5	-3.75	-41.25	-30	-52.5	-67.5	-78.75	-48.75
1600	-48.75	-11.25	-48.75	-41.25	-63.75	-78.75	-90	-60
1601	-67.5	-30	-48.75	-52.5	-75	-86.25	-97.5	-67.5
1602	-67.5	-15	-37.5	-45	-63.75	-75	-86.25	-56.25
1603	-52.5	3.75	-26.25	-30	-48.75	-60	-71.25	-45
1604	-56.25	-7.5	-30	-37.5	-56.25	-67.5	-82.5	-56.25
1605	-75	-33.75	-33.75	-41.25	-60	-71.25	-86.25	-60
1606	-75	-33.75	-22.5	-26.25	-45	-60	-75	-48.75
1607	-60	-11.25	-18.75	-18.75	-41.25	-60	-75	-48.75
1608	-41.25	3.75	-33.75	-30	-56.25	-71.25	-86.25	-63.75
1609	-37.5	7.5	-41.25	-41.25	-63.75	-75	-90	-67.5
1610	-48.75	3.75	-45	-45	-67.5	-75	-93.75	-67.5
1611	-52.5	3.75	-41.25	-45	-67.5	-75	-90	-63.75
1612	-41.25	3.75	-37.5	-41.25	-63.75	-71.25	-86.25	-56.25
1613	-48.75	-11.25	-45	-48.75	-71.25	-75	-86.25	-60
1614	-78.75	-26.25	-52.5	-52.5	-71.25	-71.25	-86.25	-60
1615	-93.75	-30	-48.75	-52.5	-67.5	-71.25	-82.5	-60
1616	-86.25	-33.75	-52.5	-56.25	-75	-75	-90	-63.75
1617	-71.25	-18.75	-41.25	-45	-63.75	-67.5	-78.75	-56.25
1618	-52.5	11.25	-30	-30	-52.5	-60	-71.25	-45
1619	-60	-7.5	-37.5	-33.75	-60	-67.5	-78.75	-48.75
1620	-75	-33.75	-56.25	-52.5	-75	-82.5	-90	-56.25
1621	-67.5	-22.5	-48.75	-48.75	-67.5	-75	-86.25	-52.5
1622	-33.75	0	-45	-41.25	-63.75	-71.25	-86.25	-48.75
1623	-37.5	3.75	-48.75	-41.25	-63.75	-71.25	-86.25	-52.5
1624	-63.75	-11.25	-52.5	-48.75	-67.5	-75	-86.25	-48.75
1625	-78.75	-33.75	-52.5	-52.5	-67.5	-75	-90	-56.25
1626	-78.75	-41.25	-45	-48.75	-67.5	-75	-93.75	-67.5
1627	-71.25	-22.5	-33.75	-33.75	-56.25	-67.5	-82.5	-56.25
1628	-56.25	3.75	-26.25	-26.25	-48.75	-60	-75	-45
1629	-60	0	-30	-33.75	-56.25	-63.75	-78.75	-48.75
1630	-56.25	0	-30	-26.25	-52.5	-63.75	-75	-48.75
1631	-45	7.5	-37.5	-30	-56.25	-67.5	-82.5	-52.5
1632	-63.75	-15	-48.75	-41.25	-63.75	-78.75	-93.75	-60
1633	-101.25	-48.75	-56.25	-48.75	-71.25	-82.5	-97.5	-63.75
1634	-108.75	-52.5	-56.25	-52.5	-71.25	-75	-90	-63.75
1635	-90	-41.25	-56.25	-48.75	-67.5	-71.25	-82.5	-56.25
1636	-75	-37.5	-52.5	-45	-67.5	-71.25	-82.5	-52.5
1637	-67.5	-37.5	-52.5	-48.75	-63.75	-67.5	-78.75	-45
1638	-71.25	-45	-56.25	-52.5	-63.75	-63.75	-78.75	-48.75
1639	-82.5	-37.5	-52.5	-52.5	-67.5	-71.25	-86.25	-60
1640	-71.25	-18.75	-48.75	-48.75	-67.5	-67.5	-82.5	-52.5
1641	-82.5	-30	-52.5	-52.5	-71.25	-75	-82.5	-56.25
1642	-93.75	-22.5	-41.25	-41.25	-60	-67.5	-75	-45
1643	-63.75	11.25	-33.75	-26.25	-52.5	-60	-67.5	-33.75
1644	-52.5	7.5	-37.5	-30	-56.25	-63.75	-75	-37.5
1645	-63.75	-15	-52.5	-41.25	-63.75	-75	-86.25	-52.5
1646	-67.5	-18.75	-56.25	-48.75	-71.25	-82.5	-97.5	-60
1647	-60	-11.25	-45	-41.25	-67.5	-82.5	-93.75	-56.25
1648	-60	-7.5	-37.5	-33.75	-60	-71.25	-78.75	-48.75
1649	-71.25	-7.5	-30	-33.75	-52.5	-63.75	-71.25	-37.5
1650	-52.5	0	-33.75	-33.75	-56.25	-63.75	-75	-41.25
1651	-30	15	-30	-26.25	-48.75	-56.25	-67.5	-37.5
1652	-52.5	7.5	-22.5	-18.75	-45	-56.25	-67.5	-33.75
1653	-71.25	3.75	-15	-15	-45	-56.25	-63.75	-33.75
1654	-56.25	37.5	0	0	-33.75	-45	-56.25	-22.5
1655	-48.75	56.25	11.25	7.5	-26.25	-41.25	-48.75	-18.75
1656	-60	33.75	0	-3.75	-37.5	-56.25	-63.75	-30
1657	-71.25	15	-7.5	-15	-48.75	-60	-67.5	-37.5
1658	-63.75	26.25	-3.75	-7.5	-41.25	-56.25	-63.75	-30
1659	-56.25	37.5	0	-3.75	-33.75	-52.5	-60	-30
1660	-45	33.75	0	0	-30	-48.75	-60	-30
1661	-30	37.5	3.75	3.75	-26.25	-45	-56.25	-26.25
1662	-37.5	37.5	3.75	11.25	-22.5	-33.75	-45	-15
1663	-45	30	0	11.25	-22.5	-33.75	-45	-18.75
1664	-56.25	22.5	7.5	18.75	-15	-30	-45	-18.75
1665	-78.75	15	11.25	22.5	-11.25	-30	-41.25	-15
1666	-63.75	30	18.75	33.75	-7.5	-26.25	-37.5	-11.25
1667	-52.5	45	15	30	-11.25	-30	-41.25	-15
1668	-52.5	56.25	22.5	30	-7.5	-26.25	-37.5	-11.25
1669	-41.25	71.25	30	37.5	0	-15	-22.5	3.75
1670	-30	67.5	15	33.75	-3.75	-22.5	-26.25	3.75
1671	-30	67.5	3.75	30	-7.5	-18.75	-22.5	7.5
1672	-30	71.25	3.75	26.25	0	-11.25	-15	15
1673	-11.25	75	-7.5	18.75	-3.75	-11.25	-18.75	11.25
1674	-26.25	67.5	-22.5	15	-7.5	-15	-22.5	3.75
1675	-37.5	60	-30	15	-7.5	-15	-22.5	7.5
1676	-15	60	-45	3.75	-11.25	-18.75	-26.25	7.5
1677	-11.25	52.5	-56.25	0	-18.75	-26.25	-30	3.75
1678	-7.5	63.75	-60	3.75	-15	-26.25	-26.25	7.5
1679	7.5	78.75	-60	3.75	-15	-22.5	-26.25	11.25
1680	7.5	63.75	-67.5	-7.5	-22.5	-30	-30	7.5
1681	7.5	56.25	-78.75	-22.5	-41.25	-41.25	-37.5	0
1682	7.5	60	-82.5	-30	-45	-45	-37.5	0
1683	0	48.75	-86.25	-33.75	-48.75	-48.75	-45	-3.75
1684	-11.25	30	-86.25	-41.25	-56.25	-56.25	-56.25	-11.25
1685	-18.75	22.5	-86.25	-52.5	-67.5	-67.5	-63.75	-18.75
1686	-30	18.75	-78.75	-45	-60	-56.25	-56.25	-11.25
1687	-37.5	26.25	-56.25	-22.5	-41.25	-37.5	-37.5	3.75
1688	-30	26.25	-52.5	-18.75	-37.5	-37.5	-37.5	7.5
1689	-22.5	18.75	-56.25	-26.25	-48.75	-48.75	-52.5	-11.25
1690	-37.5	18.75	-48.75	-22.5	-45	-48.75	-52.5	-22.5
1691	-52.5	15	-52.5	-18.75	-45	-52.5	-60	-26.25
1692	-48.75	-3.75	-71.25	-37.5	-63.75	-67.5	-75	-37.5
1693	-37.5	3.75	-71.25	-37.5	-63.75	-67.5	-71.25	-30
1694	-37.5	18.75	-71.25	-37.5	-63.75	-67.5	-75	-30
1695	-30	33.75	-60	-26.25	-52.5	-60	-67.5	-26.25
1696	-15	37.5	-48.75	-18.75	-45	-48.75	-60	-18.75
1697	-3.75	33.75	-48.75	-22.5	-48.75	-52.5	-60	-22.5
1698	-30	11.25	-52.5	-30	-52.5	-52.5	-63.75	-22.5
1699	-67.5	-22.5	-56.25	-37.5	-60	-60	-67.5	-30
1700	-78.75	-30	-63.75	-45	-75	-75	-82.5	-45
1701	-71.25	-15	-60	-45	-75	-75	-86.25	-45
1702	-86.25	-18.75	-60	-41.25	-75	-75	-82.5	-45
1703	-90	-26.25	-60	-41.25	-75	-82.5	-90	-45
1704	-86.25	-45	-71.25	-52.5	-86.25	-90	-97.5	-56.25
1705	-82.5	-52.5	-86.25	-60	-93.75	-97.5	-105	-56.25
1706	-45	-22.5	-75	-48.75	-78.75	-86.25	-93.75	-41.25
1707	-56.25	-22.5	-67.5	-41.25	-71.25	-78.75	-86.25	-41.25
1708	-78.75	-45	-71.25	-52.5	-82.5	-82.5	-93.75	-48.75
1709	-67.5	-41.25	-78.75	-60	-82.5	-82.5	-90	-48.75
1710	-67.5	-22.5	-67.5	-56.25	-78.75	-75	-82.5	-37.5
1711	-86.25	-33.75	-67.5	-56.25	-82.5	-82.5	-90	-45
1712	-108.75	-67.5	-75	-60	-90	-93.75	-101.25	-56.25
1713	-101.25	-48.75	-67.5	-52.5	-78.75	-82.5	-90	-48.75
1714	-82.5	-11.25	-56.25	-33.75	-63.75	-67.5	-78.75	-33.75
1715	-82.5	-15	-60	-37.5	-71.25	-75	-82.5	-37.5
1716	-97.5	-33.75	-60	-41.25	-78.75	-82.5	-86.25	-45
1717	-90	-37.5	-67.5	-48.75	-82.5	-86.25	-90	-45
1718	-82.5	-45	-71.25	-52.5	-86.25	-90	-97.5	-52.5
1719	-71.25	-37.5	-75	-56.25	-86.25	-90	-97.5	-48.75
1720	-63.75	-33.75	-78.75	-56.25	-86.25	-90	-93.75	-45
1721	-56.25	-37.5	-78.75	-56.25	-82.5	-86.25	-93.75	-48.75
1722	-67.5	-45	-78.75	-56.25	-82.5	-82.5	-93.75	-48.75
1723	-93.75	-52.5	-71.25	-52.5	-82.5	-82.5	-93.75	-48.75
1724	-93.75	-48.75	-63.75	-48.75	-82.5	-86.25	-97.5	-56.25
1725	-78.75	-45	-60	-41.25	-82.5	-90	-101.25	-63.75
1726	-71.25	-52.5	-48.75	-18.75	-75	-93.75	-105	-67.5
1727	-60	-60	-18.75	18.75	-60	-97.5	-112.5	-78.75
1728	-60	-86.25	18.75	56.25	-56.25	-116.25	-142.5	-112.5
1729	-37.5	-105	67.5	97.5	-48.75	-135	-172.5	-146.25
1730	-22.5	-105	120	150	-37.5	-146.25	-195	-165
1731	-37.5	-101.25	161.25	202.5	-15	-142.5	-195	-168.75
1732	-15	-78.75	195	262.5	26.25	-116.25	-180	-153.75
1733	18.75	-26.25	236.25	333.75	90	-63.75	-135	-116.25
1734	37.5	22.5	262.5	405	153.75	-7.5	-90	-82.5
1735	78.75	71.25	277.5	465	217.5	52.5	-30	-30
1736	135	131.25	288.75	517.5	281.25	120	37.5	37.5
1737	202.5	217.5	292.5	555	337.5	191.25	112.5	105
1738	285	322.5	288.75	607.5	412.5	277.5	206.25	202.5
1739	352.5	412.5	266.25	656.25	495	382.5	315	311.25
1740	393.75	513.75	240	693.75	577.5	495	435	427.5
1741	438.75	633.75	210	693.75	648.75	603.75	562.5	555
1742	495	757.5	150	678.75	723.75	727.5	697.5	690
1743	525	907.5	135	723.75	847.5	888.75	866.25	851.25
1744	547.5	1095	116.25	768.75	975	1068.75	1057.5	1035
1745	570	1297.5	26.25	727.5	1050	1230	1256.25	1241.25
1746	600	1425	-108.75	641.25	1098.75	1365	1428.75	1417.5
1747	648.75	1492.5	-225	540	1132.5	1477.5	1571.25	1552.5
1748	656.25	1563.75	-311.25	412.5	1151.25	1586.25	1702.5	1683.75
1749	611.25	1571.25	-315	360	1192.5	1676.25	1792.5	1747.5
1750	532.5	1477.5	-270	405	1271.25	1743.75	1822.5	1725
1751	457.5	1395	-262.5	397.5	1316.25	1785	1830	1691.25
1752	390	1323.75	-300	285	1263.75	1740	1773.75	1620
1753	300	1185	-322.5	138.75	1125	1586.25	1612.5	1462.5
1754	172.5	1005	-296.25	26.25	956.25	1350	1365	1241.25
1755	48.75	828.75	-247.5	-71.25	750	1076.25	1087.5	1008.75
1756	-60	652.5	-236.25	-202.5	483.75	753.75	783.75	757.5
1757	-153.75	513.75	-240	-341.25	225	461.25	513.75	543.75
1758	-191.25	416.25	-247.5	-442.5	37.5	243.75	315	382.5
1759	-183.75	322.5	-247.5	-472.5	-48.75	131.25	183.75	243.75
1760	-195	217.5	-232.5	-453.75	-71.25	71.25	97.5	138.75
1761	-232.5	131.25	-236.25	-438.75	-90	37.5	48.75	86.25
1762	-243.75	90	-266.25	-420	-86.25	33.75	45	75
1763	-236.25	78.75	-277.5	-386.25	-75	41.25	56.25	82.5
1764	-221.25	67.5	-277.5	-356.25	-86.25	22.5	45	75
1765	-187.5	48.75	-277.5	-337.5	-116.25	-11.25	18.75	63.75
1766	-183.75	15	-273.75	-311.25	-131.25	-33.75	-3.75	45
1767	-161.25	7.5	-262.5	-273.75	-120	-41.25	-15	37.5
1768	-105	30	-240	-228.75	-97.5	-30	-11.25	41.25
1769	-75	56.25	-210	-176.25	-56.25	0	7.5	56.25
1770	-52.5	82.5	-176.25	-101.25	0	41.25	45	82.5
1771	-41.25	86.25	-142.5	-45	37.5	63.75	60	93.75
1772	-41.25	86.25	-108.75	-7.5	60	75	63.75	93.75
1773	-22.5	101.25	-78.75	22.5	75	78.75	67.5	93.75
1774	-15	97.5	-67.5	37.5	71.25	71.25	52.5	82.5
1775	-22.5	71.25	-67.5	33.75	60	52.5	33.75	63.75
1776	-18.75	63.75	-63.75	37.5	56.25	45	26.25	56.25
1777	-30	60	-56.25	37.5	52.5	37.5	18.75	48.75
1778	-33.75	52.5	-52.5	37.5	45	30	11.25	41.25
1779	-22.5	48.75	-56.25	33.75	37.5	18.75	3.75	33.75
1780	-30	33.75	-60	26.25	26.25	11.25	-3.75	30
1781	-37.5	26.25	-52.5	26.25	22.5	11.25	-3.75	26.25
1782	-37.5	18.75	-52.5	18.75	15	3.75	-15	15
1783	-33.75	22.5	-48.75	26.25	18.75	3.75	-15	15
1784	-22.5	33.75	-48.75	30	18.75	7.5	-11.25	22.5
1785	-15	41.25	-48.75	33.75	18.75	7.5	-11.25	30
1786	-26.25	41.25	-45	41.25	22.5	7.5	-7.5	33.75
1787	-30	33.75	-56.25	37.5	18.75	0	-11.25	26.25
1788	0	41.25	-56.25	37.5	15	0	-15	22.5
1789	15	52.5	-48.75	41.25	18.75	7.5	-7.5	30
1790	3.75	52.5	-48.75	45	22.5	11.25	-7.5	30
1791	7.5	48.75	-48.75	45	18.75	3.75	-11.25	30
1792	22.5	45	-56.25	33.75	11.25	-3.75	-15	22.5
1793	18.75	45	-56.25	30	11.25	0	-15	22.5
1794	3.75	37.5	-52.5	33.75	15	3.75	-7.5	33.75
1795	-22.5	18.75	-56.25	33.75	15	7.5	-7.5	30
1796	-30	15	-63.75	30	7.5	0	-15	15
1797	-18.75	37.5	-52.5	45	18.75	7.5	-11.25	18.75
1798	-7.5	52.5	-41.25	60	33.75	15	-3.75	30
1799	-11.25	45	-48.75	52.5	22.5	7.5	-7.5	30
1800	-11.25	33.75	-60	45	15	0	-15	26.25
1801	-11.25	30	-56.25	45	18.75	3.75	-11.25	22.5
1802	3.75	41.25	-48.75	52.5	26.25	15	-3.75	33.75
1803	11.25	37.5	-56.25	48.75	22.5	11.25	-3.75	30
1804	-7.5	15	-63.75	41.25	15	3.75	-11.25	26.25
1805	-18.75	18.75	-52.5	48.75	22.5	11.25	-3.75	33.75
1806	-15	33.75	-45	56.25	30	22.5	3.75	41.25
1807	15	45	-48.75	60	30	22.5	7.5	41.25
1808	30	56.25	-48.75	63.75	33.75	22.5	15	52.5
1809	26.25	71.25	-41.25	71.25	41.25	22.5	15	63.75
1810	18.75	75	-37.5	78.75	45	22.5	7.5	52.5
1811	33.75	71.25	-48.75	75	41.25	30	15	45
1812	56.25	71.25	-60	67.5	37.5	30	18.75	48.75
1813	60	71.25	-60	67.5	37.5	30	11.25	52.5
1814	48.75	71.25	-56.25	71.25	45	33.75	18.75	60
1815	45	63.75	-60	71.25	45	37.5	26.25	63.75
1816	41.25	52.5	-60	67.5	45	37.5	26.25	60
1817	48.75	56.25	-60	67.5	45	33.75	22.5	56.25
1818	67.5	75	-52.5	75	48.75	30	18.75	63.75
1819	86.25	93.75	-52.5	82.5	60	41.25	30	86.25
1820	67.5	90	-52.5	86.25	60	48.75	37.5	86.25
1821	48.75	78.75	-56.25	82.5	52.5	45	30	63.75
1822	52.5	82.5	-52.5	90	60	60	37.5	67.5
1823	67.5	97.5	-52.5	97.5	63.75	63.75	41.25	78.75
1824	67.5	97.5	-52.5	97.5	67.5	63.75	41.25	78.75
1825	56.25	82.5	-56.25	90	60	56.25	37.5	78.75
1826	60	90	-52.5	90	67.5	67.5	52.5	97.5
1827	71.25	93.75	-52.5	93.75	71.25	71.25	56.25	90
1828	93.75	93.75	-56.25	93.75	67.5	63.75	41.25	67.5
1829	93.75	97.5	-56.25	97.5	71.25	67.5	45	75
1830	82.5	97.5	-52.5	97.5	75	75	56.25	86.25
1831	75	93.75	-52.5	101.25	78.75	75	60	90
1832	63.75	86.25	-56.25	101.25	78.75	75	56.25	86.25
1833	63.75	93.75	-48.75	108.75	86.25	82.5	67.5	93.75
1834	82.5	105	-52.5	112.5	86.25	78.75	63.75	93.75
1835	90	101.25	-60	108.75	82.5	75	60	97.5
1836	82.5	90	-67.5	101.25	75	71.25	56.25	93.75
1837	71.25	75	-75	93.75	67.5	67.5	52.5	90
1838	48.75	52.5	-86.25	86.25	60	60	45	82.5
1839	45	45	-86.25	82.5	60	56.25	45	82.5
1840	75	71.25	-78.75	93.75	71.25	71.25	56.25	97.5
1841	97.5	93.75	-75	101.25	78.75	82.5	71.25	112.5
1842	105	108.75	-67.5	105	86.25	90	78.75	116.25
1843	108.75	116.25	-63.75	108.75	90	93.75	82.5	120
1844	108.75	116.25	-71.25	108.75	90	97.5	86.25	120
1845	108.75	127.5	-71.25	112.5	93.75	97.5	86.25	127.5
1846	101.25	131.25	-71.25	112.5	90	90	86.25	123.75
1847	108.75	123.75	-78.75	108.75	82.5	86.25	78.75	120
1848	131.25	127.5	-78.75	108.75	82.5	86.25	82.5	123.75
1849	135	135	-75	116.25	86.25	90	90	131.25
1850	142.5	138.75	-75	112.5	86.25	93.75	90	135
1851	157.5	142.5	-82.5	105	82.5	86.25	82.5	127.5
1852	157.5	138.75	-90	101.25	78.75	86.25	82.5	127.5
1853	153.75	138.75	-90	105	78.75	93.75	90	135
1854	150	146.25	-90	101.25	75	93.75	90	135
1855	150	161.25	-78.75	112.5	86.25	101.25	97.5	142.5
1856	153.75	168.75	-75	116.25	90	105	101.25	146.25
1857	168.75	183.75	-67.5	120	90	108.75	105	150
1858	183.75	187.5	-67.5	127.5	93.75	108.75	105	157.5
1859	165	146.25	-90	105	71.25	86.25	90	146.25
1860	165	135	-101.25	93.75	60	75	78.75	135
1861	187.5	165	-86.25	105	71.25	86.25	93.75	150
1862	180	153.75	-86.25	105	71.25	90	97.5	157.5
1863	172.5	146.25	-90	101.25	63.75	86.25	97.5	153.75
1864	195	165	-82.5	105	71.25	93.75	105	165
1865	195	157.5	-90	97.5	63.75	93.75	105	161.25
1866	176.25	146.25	-90	97.5	60	90	101.25	161.25
1867	191.25	161.25	-86.25	101.25	60	86.25	101.25	165
1868	187.5	172.5	-82.5	101.25	60	90	101.25	165
1869	191.25	187.5	-78.75	105	63.75	90	105	165
1870	195	187.5	-86.25	108.75	60	86.25	105	168.75
1871	172.5	157.5	-105	90	41.25	67.5	82.5	153.75
1872	161.25	150	-105	82.5	33.75	60	75	146.25
1873	165	157.5	-101.25	82.5	33.75	60	78.75	146.25
1874	157.5	153.75	-93.75	90	37.5	63.75	82.5	153.75
1875	153.75	153.75	-90	90	37.5	63.75	82.5	153.75
1876	161.25	153.75	-90	86.25	33.75	63.75	78.75	150
1877	165	161.25	-90	86.25	37.5	67.5	86.25	157.5
1878	165	161.25	-90	82.5	33.75	67.5	86.25	161.25
1879	172.5	161.25	-93.75	78.75	26.25	60	78.75	146.25
1880	187.5	176.25	-86.25	82.5	30	63.75	78.75	146.25
1881	198.75	195	-71.25	97.5	37.5	63.75	86.25	157.5
1882	187.5	195	-67.5	101.25	33.75	56.25	82.5	157.5
1883	168.75	176.25	-78.75	90	26.25	48.75	71.25	150
1884	157.5	153.75	-86.25	82.5	18.75	41.25	60	138.75
1885	142.5	142.5	-82.5	78.75	15	33.75	52.5	131.25
1886	138.75	146.25	-78.75	86.25	15	33.75	48.75	127.5
1887	146.25	150	-71.25	86.25	15	33.75	45	120
1888	127.5	131.25	-67.5	82.5	11.25	26.25	41.25	112.5
1889	101.25	108.75	-63.75	78.75	7.5	22.5	41.25	108.75
1890	108.75	120	-52.5	90	15	33.75	45	112.5
1891	120	135	-45	93.75	18.75	33.75	45	108.75
1892	123.75	142.5	-45	97.5	18.75	30	37.5	105
1893	112.5	138.75	-41.25	97.5	18.75	26.25	30	97.5
1894	101.25	138.75	-37.5	101.25	18.75	18.75	22.5	93.75
1895	97.5	138.75	-30	108.75	22.5	15	18.75	90
1896	93.75	131.25	-37.5	101.25	15	7.5	15	82.5
1897	82.5	127.5	-41.25	93.75	11.25	3.75	7.5	75
1898	93.75	127.5	-33.75	90	7.5	3.75	3.75	71.25
1899	101.25	127.5	-26.25	93.75	11.25	3.75	3.75	75
1900	75	105	-22.5	93.75	15	7.5	11.25	78.75
1901	41.25	71.25	-18.75	90	7.5	3.75	7.5	71.25
1902	41.25	63.75	-18.75	82.5	3.75	-3.75	-3.75	56.25
1903	60	86.25	-7.5	97.5	15	7.5	3.75	63.75
1904	63.75	101.25	0	105	26.25	15	11.25	67.5
1905	52.5	101.25	3.75	108.75	26.25	7.5	3.75	63.75
1906	56.25	108.75	3.75	105	22.5	3.75	-3.75	60
1907	52.5	105	-7.5	97.5	15	-3.75	-11.25	56.25
1908	22.5	75	-18.75	82.5	0	-18.75	-22.5	37.5
1909	-7.5	52.5	-22.5	78.75	0	-18.75	-30	30
1910	-22.5	30	-26.25	67.5	-7.5	-22.5	-33.75	26.25
1911	-11.25	22.5	-26.25	63.75	-11.25	-26.25	-37.5	22.5
1912	-22.5	15	-26.25	56.25	-15	-30	-45	11.25
1913	-48.75	0	-22.5	52.5	-18.75	-33.75	-48.75	7.5
1914	-41.25	11.25	-18.75	56.25	-15	-30	-45	11.25
1915	-33.75	15	-15	56.25	-15	-30	-45	11.25
1916	-45	11.25	-7.5	60	-11.25	-30	-41.25	15
1917	-22.5	37.5	3.75	67.5	-3.75	-22.5	-33.75	26.25
1918	3.75	52.5	3.75	67.5	0	-22.5	-33.75	30
1919	-11.25	26.25	-11.25	48.75	-18.75	-37.5	-52.5	7.5
1920	-22.5	18.75	-18.75	41.25	-22.5	-45	-56.25	7.5
1921	-15	33.75	-15	45	-18.75	-41.25	-52.5	7.5
1922	3.75	48.75	-11.25	48.75	-18.75	-37.5	-52.5	0
1923	-22.5	30	-15	45	-22.5	-41.25	-52.5	7.5
1924	-48.75	0	-22.5	30	-33.75	-48.75	-56.25	3.75
1925	-41.25	3.75	-15	30	-33.75	-45	-52.5	3.75
1926	-33.75	11.25	-7.5	33.75	-26.25	-37.5	-45	7.5
1927	-22.5	18.75	-11.25	33.75	-26.25	-37.5	-48.75	7.5
1928	-30	15	-11.25	33.75	-30	-41.25	-60	0
1929	-52.5	11.25	-7.5	37.5	-30	-45	-60	0
1930	-52.5	15	-11.25	41.25	-30	-45	-56.25	0
1931	-37.5	18.75	-15	33.75	-33.75	-52.5	-63.75	0
1932	-41.25	15	-11.25	33.75	-33.75	-56.25	-71.25	-7.5
1933	-60	-3.75	-11.25	30	-41.25	-63.75	-82.5	-26.25
1934	-82.5	-26.25	-22.5	18.75	-48.75	-71.25	-86.25	-30
1935	-90	-26.25	-26.25	15	-48.75	-71.25	-86.25	-26.25
1936	-78.75	-22.5	-26.25	18.75	-45	-71.25	-86.25	-26.25
1937	-48.75	-7.5	-15	26.25	-41.25	-60	-75	-15
1938	-18.75	22.5	-7.5	33.75	-30	-45	-60	-3.75
1939	-26.25	30	-3.75	41.25	-22.5	-41.25	-56.25	0
1940	-52.5	7.5	-11.25	33.75	-30	-48.75	-63.75	-7.5
1941	-48.75	11.25	-11.25	33.75	-33.75	-52.5	-67.5	-15
1942	-48.75	15	-11.25	33.75	-33.75	-56.25	-71.25	-15
1943	-82.5	-11.25	-26.25	26.25	-41.25	-67.5	-78.75	-18.75
1944	-90	-3.75	-22.5	33.75	-30	-52.5	-67.5	-7.5
1945	-56.25	11.25	-15	37.5	-26.25	-48.75	-60	0
1946	-56.25	-11.25	-22.5	30	-33.75	-56.25	-67.5	-11.25
1947	-71.25	-22.5	-22.5	26.25	-33.75	-56.25	-71.25	-15
1948	-60	-11.25	-15	30	-30	-48.75	-63.75	-11.25
1949	-60	-11.25	-22.5	26.25	-30	-48.75	-63.75	-11.25
1950	-82.5	-15	-22.5	26.25	-30	-48.75	-63.75	-15
1951	-71.25	0	-15	37.5	-22.5	-45	-60	-7.5
1952	-41.25	18.75	-11.25	41.25	-15	-41.25	-60	-7.5
1953	-37.5	37.5	0	52.5	-3.75	-30	-48.75	3.75
1954	-18.75	48.75	-3.75	56.25	-7.5	-33.75	-48.75	3.75
1955	-26.25	26.25	-15	45	-15	-41.25	-60	0
1956	-33.75	15	-26.25	30	-22.5	-48.75	-67.5	-7.5
1957	-30	30	-15	41.25	-15	-41.25	-56.25	3.75
1958	-37.5	30	-11.25	52.5	-7.5	-33.75	-48.75	7.5
1959	-30	26.25	-15	48.75	-11.25	-37.5	-52.5	3.75
1960	-30	22.5	-18.75	37.5	-18.75	-41.25	-60	-3.75
1961	-41.25	11.25	-18.75	37.5	-18.75	-37.5	-56.25	0
1962	-37.5	7.5	-22.5	33.75	-18.75	-37.5	-52.5	3.75
1963	-45	3.75	-22.5	33.75	-22.5	-41.25	-56.25	0
1964	-48.75	11.25	-15	41.25	-15	-37.5	-52.5	3.75
1965	-45	41.25	0	60	3.75	-22.5	-37.5	22.5
1966	-52.5	37.5	0	63.75	3.75	-26.25	-41.25	18.75
1967	-48.75	7.5	-18.75	41.25	-18.75	-45	-60	0
1968	-48.75	-11.25	-30	30	-22.5	-48.75	-60	3.75
1969	-45	0	-22.5	37.5	-11.25	-33.75	-48.75	7.5
1970	-26.25	15	-18.75	45	-7.5	-30	-48.75	3.75
1971	-18.75	15	-26.25	41.25	-15	-33.75	-52.5	3.75
1972	-30	11.25	-30	33.75	-15	-33.75	-48.75	3.75
1973	-41.25	11.25	-26.25	33.75	-15	-26.25	-41.25	7.5
1974	-52.5	11.25	-26.25	33.75	-11.25	-22.5	-37.5	11.25
1975	-37.5	18.75	-30	33.75	-11.25	-26.25	-45	3.75
1976	0	45	-26.25	41.25	-3.75	-18.75	-37.5	7.5
1977	-3.75	60	-18.75	52.5	3.75	-15	-30	18.75
1978	-30	48.75	-18.75	52.5	0	-22.5	-33.75	18.75
1979	-37.5	30	-26.25	41.25	-11.25	-33.75	-45	7.5
1980	-33.75	26.25	-22.5	37.5	-11.25	-33.75	-45	3.75
1981	-37.5	18.75	-33.75	30	-18.75	-33.75	-48.75	0
1982	-37.5	11.25	-37.5	22.5	-22.5	-41.25	-52.5	0
1983	-30	11.25	-33.75	22.5	-26.25	-41.25	-52.5	0
1984	-22.5	3.75	-33.75	18.75	-26.25	-45	-60	-7.5
1985	-26.25	0	-33.75	22.5	-22.5	-41.25	-52.5	0
1986	-48.75	-3.75	-30	18.75	-22.5	-33.75	-48.75	7.5
1987	-60	0	-18.75	30	-15	-30	-45	11.25
1988	-41.25	22.5	-11.25	37.5	-3.75	-22.5	-41.25	7.5
1989	-26.25	30	-15	33.75	-11.25	-26.25	-45	7.5
1990	-26.25	22.5	-26.25	33.75	-15	-37.5	-48.75	0
1991	-37.5	11.25	-37.5	26.25	-18.75	-41.25	-52.5	-3.75
1992	-45	11.25	-41.25	26.25	-18.75	-41.25	-48.75	-3.75
1993	-37.5	30	-41.25	22.5	-22.5	-37.5	-48.75	0
1994	-45	30	-41.25	18.75	-26.25	-37.5	-48.75	-3.75
1995	-41.25	18.75	-45	15	-26.25	-37.5	-48.75	-3.75
1996	-37.5	7.5	-56.25	3.75	-33.75	-45	-56.25	-11.25
1997	-33.75	7.5	-60	0	-37.5	-41.25	-56.25	-11.25
1998	-30	22.5	-45	15	-26.25	-30	-41.25	3.75
1999	-26.25	33.75	-26.25	26.25	-15	-22.5	-37.5	11.25
2000	-22.5	26.25	-33.75	18.75	-22.5	-30	-45	3.75
2001	-18.75	22.5	-33.75	18.75	-26.25	-37.5	-52.5	0
2002	-15	30	-33.75	26.25	-22.5	-37.5	-48.75	3.75
2003	-22.5	26.25	-37.5	22.5	-26.25	-41.25	-52.5	0
2004	-22.5	18.75	-41.25	18.75	-26.25	-41.25	-56.25	0
2005	-33.75	7.5	-41.25	18.75	-30	-41.25	-52.5	0
2006	-30	11.25	-41.25	15	-30	-37.5	-48.75	0
2007	-30	7.5	-45	11.25	-30	-41.25	-52.5	-3.75
2008	-60	-30	-63.75	-7.5	-45	-52.5	-63.75	-18.75
2009	-60	-33.75	-56.25	-7.5	-45	-45	-60	-11.25
2010	-52.5	-11.25	-45	0	-45	-45	-56.25	-7.5
2011	-48.75	0	-45	3.75	-41.25	-45	-52.5	-7.5
2012	-48.75	3.75	-48.75	0	-41.25	-41.25	-48.75	-7.5
2013	-48.75	15	-45	7.5	-33.75	-37.5	-48.75	0
2014	-45	22.5	-41.25	18.75	-33.75	-41.25	-48.75	3.75
2015	-37.5	15	-48.75	7.5	-45	-52.5	-60	-3.75
2016	-22.5	18.75	-52.5	0	-48.75	-56.25	-63.75	-7.5
2017	-22.5	26.25	-52.5	0	-45	-56.25	-63.75	-7.5
2018	-41.25	18.75	-52.5	0	-45	-52.5	-60	0
2019	-48.75	11.25	-56.25	-3.75	-52.5	-56.25	-63.75	-3.75
2020	-33.75	11.25	-60	-7.5	-52.5	-56.25	-67.5	-11.25
2021	-37.5	0	-60	-15	-56.25	-60	-71.25	-18.75
2022	-45	-3.75	-52.5	-11.25	-56.25	-60	-71.25	-18.75
2023	-37.5	3.75	-45	-3.75	-48.75	-52.5	-63.75	-15
2024	-45	3.75	-52.5	-3.75	-48.75	-52.5	-63.75	-15
2025	-52.5	7.5	-48.75	0	-45	-48.75	-56.25	0
2026	-41.25	3.75	-56.25	-3.75	-48.75	-56.25	-60	-3.75
2027	-30	-3.75	-63.75	-15	-60	-63.75	-67.5	-15
2028	-45	0	-56.25	-11.25	-56.25	-60	-63.75	-3.75
2029	-52.5	0	-56.25	-11.25	-56.25	-63.75	-71.25	-11.25
2030	-52.5	-3.75	-56.25	-11.25	-60	-63.75	-71.25	-18.75
2031	-52.5	-7.5	-56.25	-15	-60	-63.75	-71.25	-15
2032	-67.5	-30	-67.5	-26.25	-71.25	-75	-82.5	-18.75
2033	-82.5	-52.5	-71.25	-33.75	-78.75	-82.5	-90	-33.75
2034	-78.75	-45	-67.5	-33.75	-78.75	-82.5	-90	-33.75
2035	-75	-26.25	-56.25	-22.5	-67.5	-71.25	-78.75	-22.5
2036	-60	-3.75	-48.75	-15	-60	-67.5	-71.25	-11.25
2037	-45	15	-48.75	-7.5	-56.25	-63.75	-71.25	-11.25
2038	-45	11.25	-52.5	-11.25	-60	-71.25	-75	-18.75
2039	-45	3.75	-63.75	-18.75	-67.5	-82.5	-86.25	-30
2040	-30	15	-56.25	-18.75	-67.5	-75	-82.5	-22.5
2041	-33.75	7.5	-63.75	-22.5	-67.5	-78.75	-86.25	-22.5
2042	-22.5	3.75	-67.5	-26.25	-71.25	-82.5	-90	-26.25
2043	-3.75	18.75	-60	-18.75	-60	-67.5	-75	-15
2044	-56.25	-26.25	-67.5	-30	-71.25	-75	-82.5	-26.25
2045	-131.25	-101.25	-86.25	-52.5	-93.75	-97.5	-105	-48.75
2046	-112.5	-82.5	-75	-41.25	-82.5	-86.25	-93.75	-37.5
2047	-60	-26.25	-60	-26.25	-67.5	-75	-78.75	-22.5
2048	-48.75	-15	-63.75	-26.25	-67.5	-71.25	-78.75	-18.75
2049	-63.75	-22.5	-63.75	-22.5	-71.25	-75	-82.5	-22.5
2050	-60	-15	-56.25	-18.75	-71.25	-78.75	-82.5	-22.5
2051	-41.25	-11.25	-60	-22.5	-71.25	-82.5	-86.25	-22.5
2052	-41.25	-15	-63.75	-22.5	-67.5	-78.75	-82.5	-18.75
2053	-52.5	-18.75	-63.75	-26.25	-71.25	-78.75	-82.5	-22.5
2054	-48.75	-7.5	-56.25	-18.75	-60	-71.25	-78.75	-18.75
2055	-41.25	-3.75	-56.25	-18.75	-60	-71.25	-78.75	-18.75
2056	-37.5	0	-56.25	-18.75	-63.75	-71.25	-75	-18.75
2057	-37.5	11.25	-48.75	-15	-56.25	-60	-63.75	-11.25
2058	-41.25	18.75	-41.25	-7.5	-48.75	-52.5	-60	-7.5
2059	-45	22.5	-37.5	-3.75	-45	-56.25	-63.75	-11.25
2060	-52.5	26.25	-30	3.75	-37.5	-48.75	-56.25	-3.75
2061	-56.25	41.25	-22.5	15	-30	-37.5	-45	7.5
2062	-52.5	45	-26.25	11.25	-37.5	-48.75	-56.25	0
2063	-41.25	48.75	-22.5	11.25	-37.5	-56.25	-60	0
2064	-33.75	63.75	-15	18.75	-30	-45	-52.5	7.5
2065	-22.5	67.5	-11.25	22.5	-26.25	-41.25	-48.75	11.25
2066	-18.75	56.25	-7.5	18.75	-30	-48.75	-56.25	3.75
2067	-30	33.75	-11.25	15	-37.5	-52.5	-63.75	-3.75
2068	-48.75	22.5	-15	15	-37.5	-48.75	-60	-3.75
2069	-63.75	15	-15	15	-37.5	-45	-56.25	0
2070	-56.25	11.25	-15	18.75	-33.75	-41.25	-52.5	0
2071	-45	15	-11.25	22.5	-30	-37.5	-52.5	0
2072	-48.75	22.5	3.75	33.75	-18.75	-33.75	-45	7.5
2073	-45	37.5	7.5	41.25	-15	-30	-41.25	11.25
2074	-60	37.5	7.5	48.75	-15	-30	-41.25	15
2075	-63.75	37.5	3.75	45	-18.75	-37.5	-45	11.25
2076	-45	63.75	7.5	48.75	-7.5	-26.25	-33.75	26.25
2077	-22.5	82.5	3.75	48.75	-3.75	-15	-26.25	33.75
2078	-7.5	82.5	-11.25	37.5	-7.5	-18.75	-30	30
2079	-11.25	71.25	-26.25	26.25	-18.75	-22.5	-30	30
2080	-33.75	56.25	-37.5	26.25	-15	-18.75	-26.25	30
2081	-22.5	52.5	-56.25	15	-22.5	-22.5	-30	26.25
2082	-3.75	63.75	-63.75	11.25	-26.25	-22.5	-30	30
2083	3.75	75	-60	15	-18.75	-15	-26.25	33.75
2084	3.75	78.75	-60	18.75	-18.75	-15	-26.25	37.5
2085	-3.75	82.5	-56.25	22.5	-11.25	-15	-26.25	37.5
2086	-7.5	75	-71.25	11.25	-26.25	-30	-37.5	30
2087	-3.75	48.75	-101.25	-22.5	-52.5	-52.5	-56.25	15
2088	26.25	48.75	-116.25	-37.5	-67.5	-63.75	-67.5	3.75
2089	33.75	60	-112.5	-37.5	-71.25	-67.5	-67.5	3.75
2090	7.5	63.75	-101.25	-26.25	-63.75	-60	-60	11.25
2091	-3.75	56.25	-93.75	-30	-60	-56.25	-60	11.25
2092	-3.75	33.75	-97.5	-41.25	-71.25	-67.5	-75	-3.75
2093	-7.5	18.75	-97.5	-41.25	-71.25	-71.25	-78.75	-7.5
2094	-7.5	22.5	-90	-33.75	-67.5	-63.75	-75	0
2095	-22.5	22.5	-71.25	-18.75	-56.25	-56.25	-63.75	0
2096	-37.5	11.25	-67.5	-18.75	-56.25	-56.25	-67.5	-7.5
2097	-33.75	18.75	-63.75	-11.25	-52.5	-52.5	-63.75	0
2098	-22.5	30	-63.75	-11.25	-52.5	-56.25	-63.75	3.75
2099	-33.75	15	-71.25	-18.75	-63.75	-67.5	-75	-11.25
2100	-22.5	22.5	-67.5	-22.5	-67.5	-71.25	-78.75	-15
2101	-22.5	18.75	-75	-30	-71.25	-75	-82.5	-18.75
2102	-37.5	3.75	-82.5	-37.5	-78.75	-78.75	-86.25	-22.5
2103	-67.5	-22.5	-90	-45	-86.25	-86.25	-93.75	-30
2104	-86.25	-45	-93.75	-52.5	-90	-90	-97.5	-37.5
2105	-82.5	-45	-86.25	-48.75	-90	-86.25	-93.75	-33.75
2106	-86.25	-41.25	-82.5	-48.75	-90	-86.25	-93.75	-33.75
2107	-75	-33.75	-82.5	-52.5	-93.75	-90	-97.5	-37.5
2108	-63.75	-22.5	-82.5	-45	-90	-90	-97.5	-37.5
2109	-71.25	-18.75	-75	-41.25	-86.25	-90	-97.5	-37.5
2110	-63.75	-11.25	-78.75	-41.25	-86.25	-90	-101.25	-41.25
2111	-56.25	-15	-90	-48.75	-90	-93.75	-105	-45
2112	-48.75	0	-86.25	-45	-86.25	-90	-101.25	-41.25
2113	-41.25	3.75	-82.5	-45	-90	-93.75	-101.25	-37.5
2114	-48.75	-15	-90	-56.25	-97.5	-101.25	-108.75	-48.75
2115	-67.5	-33.75	-93.75	-56.25	-101.25	-105	-108.75	-48.75
2116	-82.5	-60	-101.25	-67.5	-112.5	-112.5	-116.25	-60
2117	-90	-63.75	-97.5	-63.75	-108.75	-105	-108.75	-52.5
2118	-78.75	-48.75	-86.25	-56.25	-101.25	-97.5	-105	-45
2119	-60	-30	-86.25	-52.5	-101.25	-101.25	-105	-45
2120	-71.25	-30	-86.25	-52.5	-101.25	-101.25	-105	-45
2121	-75	-18.75	-82.5	-45	-93.75	-93.75	-101.25	-33.75
2122	-60	-7.5	-78.75	-37.5	-86.25	-90	-93.75	-30
2123	-78.75	-33.75	-90	-52.5	-101.25	-101.25	-108.75	-45
2124	-71.25	-37.5	-93.75	-52.5	-101.25	-101.25	-108.75	-48.75
2125	-52.5	-26.25	-90	-48.75	-97.5	-101.25	-105	-48.75
2126	-56.25	-22.5	-90	-48.75	-97.5	-101.25	-108.75	-45
2127	-63.75	-22.5	-90	-48.75	-93.75	-101.25	-105	-48.75
2128	-60	-33.75	-90	-48.75	-97.5	-97.5	-105	-48.75
2129	-52.5	-30	-86.25	-52.5	-97.5	-97.5	-105	-48.75
2130	-63.75	-30	-86.25	-48.75	-93.75	-97.5	-101.25	-48.75
2131	-78.75	-48.75	-78.75	-45	-93.75	-97.5	-108.75	-56.25
2132	-82.5	-63.75	-71.25	-33.75	-97.5	-108.75	-120	-71.25
2133	-63.75	-60	-33.75	3.75	-82.5	-112.5	-131.25	-86.25
2134	-48.75	-78.75	7.5	48.75	-75	-127.5	-153.75	-108.75
2135	-67.5	-123.75	48.75	86.25	-78.75	-153.75	-191.25	-150
2136	-78.75	-135	101.25	138.75	-63.75	-165	-210	-168.75
2137	-45	-112.5	138.75	180	-48.75	-168.75	-221.25	-176.25
2138	-11.25	-82.5	168.75	232.5	-18.75	-153.75	-210	-172.5
2139	3.75	-48.75	202.5	300	30	-116.25	-183.75	-150
2140	11.25	-18.75	236.25	371.25	97.5	-60	-135	-105
2141	56.25	30	262.5	435	161.25	0	-78.75	-56.25
2142	123.75	116.25	285	495	228.75	67.5	-7.5	11.25
2143	165	187.5	285	532.5	281.25	131.25	52.5	67.5
2144	213.75	258.75	277.5	566.25	337.5	198.75	131.25	142.5
2145	288.75	363.75	266.25	630	431.25	307.5	243.75	255
2146	360	483.75	251.25	682.5	528.75	431.25	367.5	375
2147	405	600	210	690	607.5	543.75	495	495
2148	465	735	146.25	675	686.25	675	641.25	637.5
2149	513.75	907.5	123.75	701.25	810	840	813.75	802.5
2150	540	1102.5	112.5	753.75	945	1023.75	1008.75	990
2151	566.25	1305	26.25	720	1027.5	1185	1203.75	1188.75
2152	615	1458.75	-105	626.25	1080	1331.25	1383.75	1372.5
2153	663.75	1515	-232.5	521.25	1113.75	1451.25	1526.25	1507.5
2154	660	1571.25	-345	371.25	1125	1552.5	1653.75	1627.5
2155	600	1578.75	-393.75	262.5	1147.5	1642.5	1747.5	1695
2156	543.75	1511.25	-352.5	296.25	1230	1725	1796.25	1698.75
2157	491.25	1458.75	-322.5	333.75	1312.5	1796.25	1833.75	1695
2158	423.75	1410	-345	262.5	1308.75	1800	1818.75	1650
2159	363.75	1293.75	-386.25	120	1192.5	1672.5	1680	1511.25
2160	270	1106.25	-382.5	0	1023.75	1451.25	1447.5	1297.5
2161	138.75	911.25	-337.5	-90	828.75	1185	1173.75	1057.5
2162	3.75	716.25	-318.75	-210	562.5	855	866.25	821.25
2163	-127.5	510	-352.5	-393.75	236.25	491.25	540	566.25
2164	-213.75	348.75	-386.25	-547.5	-30	202.5	281.25	356.25
2165	-228.75	255	-378.75	-592.5	-150	56.25	127.5	213.75
2166	-247.5	161.25	-356.25	-558.75	-168.75	-7.5	33.75	101.25
2167	-273.75	90	-337.5	-521.25	-165	-30	-11.25	41.25
2168	-240	86.25	-345	-480	-142.5	-15	-3.75	41.25
2169	-198.75	105	-333.75	-416.25	-105	15	22.5	60
2170	-183.75	97.5	-322.5	-363.75	-97.5	11.25	15	60
2171	-183.75	56.25	-326.25	-345	-127.5	-22.5	-7.5	41.25
2172	-157.5	37.5	-318.75	-318.75	-142.5	-48.75	-30	22.5
2173	-120	48.75	-285	-266.25	-120	-41.25	-26.25	26.25
2174	-93.75	67.5	-255	-213.75	-93.75	-30	-18.75	33.75
2175	-78.75	71.25	-232.5	-168.75	-63.75	-15	-11.25	37.5
2176	-60	78.75	-202.5	-108.75	-18.75	18.75	11.25	56.25
2177	-52.5	78.75	-161.25	-48.75	22.5	48.75	30	67.5
2178	-37.5	86.25	-120	-7.5	45	60	37.5	67.5
2179	-22.5	93.75	-97.5	15	52.5	60	30	63.75
2180	-11.25	93.75	-82.5	30	52.5	52.5	22.5	52.5
2181	0	93.75	-71.25	45	56.25	45	15	48.75
2182	-11.25	82.5	-67.5	48.75	48.75	33.75	7.5	41.25
2183	-18.75	63.75	-67.5	48.75	45	30	0	33.75
2184	-18.75	45	-75	33.75	26.25	11.25	-18.75	22.5
2185	-15	45	-71.25	33.75	18.75	3.75	-22.5	18.75
2186	-7.5	52.5	-63.75	41.25	22.5	7.5	-18.75	22.5
2187	-26.25	37.5	-60	45	22.5	7.5	-18.75	26.25
2188	-52.5	15	-56.25	41.25	18.75	3.75	-22.5	18.75
2189	-41.25	0	-71.25	30	3.75	-11.25	-37.5	3.75
2190	-7.5	7.5	-75	26.25	0	-18.75	-45	-3.75
2191	-15	11.25	-67.5	30	0	-22.5	-48.75	-3.75
2192	-18.75	15	-63.75	33.75	0	-18.75	-48.75	-3.75
2193	-3.75	26.25	-56.25	48.75	7.5	-15	-41.25	3.75
2194	7.5	37.5	-56.25	56.25	11.25	-11.25	-37.5	7.5
2195	-7.5	18.75	-67.5	45	3.75	-18.75	-45	3.75
2196	-26.25	0	-71.25	37.5	-3.75	-26.25	-52.5	0
2197	-33.75	7.5	-63.75	45	0	-18.75	-45	3.75
2198	-15	22.5	-60	45	3.75	-18.75	-45	0
2199	11.25	30	-63.75	45	0	-22.5	-48.75	0
2200	11.25	33.75	-60	45	0	-18.75	-45	3.75
2201	-3.75	33.75	-56.25	48.75	3.75	-15	-45	3.75
2202	-26.25	18.75	-52.5	52.5	7.5	-15	-45	3.75
2203	-30	15	-56.25	56.25	7.5	-15	-41.25	0
2204	-3.75	33.75	-56.25	56.25	11.25	-11.25	-37.5	3.75
2205	18.75	45	-56.25	63.75	15	-7.5	-33.75	11.25
2206	11.25	45	-52.5	71.25	22.5	-3.75	-30	15
2207	-3.75	37.5	-52.5	67.5	18.75	-7.5	-30	15
2208	11.25	37.5	-67.5	56.25	11.25	-11.25	-33.75	7.5
2209	30	45	-67.5	67.5	22.5	-3.75	-30	11.25
2210	18.75	41.25	-63.75	71.25	26.25	0	-26.25	15
2211	7.5	30	-67.5	63.75	18.75	-3.75	-30	11.25
2212	18.75	33.75	-71.25	63.75	18.75	-3.75	-26.25	11.25
2213	11.25	41.25	-63.75	71.25	26.25	3.75	-18.75	18.75
2214	0	45	-56.25	78.75	37.5	11.25	-11.25	22.5
2215	15	52.5	-60	82.5	37.5	11.25	-15	22.5
2216	41.25	56.25	-67.5	78.75	33.75	7.5	-18.75	18.75
2217	45	71.25	-60	86.25	41.25	11.25	-15	22.5
2218	48.75	86.25	-52.5	101.25	52.5	18.75	-3.75	33.75
2219	63.75	86.25	-60	93.75	45	18.75	-3.75	33.75
2220	75	93.75	-60	97.5	52.5	26.25	3.75	41.25
2221	75	97.5	-63.75	97.5	52.5	26.25	0	37.5
2222	75	108.75	-56.25	101.25	56.25	30	3.75	41.25
2223	78.75	112.5	-56.25	105	60	37.5	11.25	45
2224	48.75	71.25	-75	86.25	48.75	26.25	-3.75	30
2225	11.25	33.75	-75	82.5	45	22.5	-7.5	26.25
2226	3.75	33.75	-75	86.25	45	26.25	-3.75	30
2227	0	37.5	-75	90	48.75	26.25	0	30
2228	26.25	71.25	-63.75	101.25	63.75	41.25	15	45
2229	52.5	105	-52.5	116.25	75	52.5	30	60
2230	41.25	82.5	-63.75	112.5	71.25	45	18.75	52.5
2231	26.25	52.5	-82.5	97.5	56.25	30	3.75	37.5
2232	33.75	67.5	-82.5	97.5	60	30	7.5	41.25
2233	41.25	86.25	-75	105	67.5	37.5	15	48.75
2234	63.75	90	-71.25	112.5	71.25	45	22.5	52.5
2235	78.75	82.5	-78.75	105	67.5	45	18.75	52.5
2236	78.75	78.75	-82.5	108.75	71.25	52.5	26.25	60
2237	71.25	86.25	-71.25	116.25	82.5	60	37.5	67.5
2238	71.25	93.75	-67.5	120	90	67.5	41.25	71.25
2239	71.25	86.25	-71.25	123.75	90	63.75	41.25	71.25
2240	78.75	93.75	-71.25	123.75	90	67.5	45	71.25
2241	93.75	116.25	-63.75	135	101.25	75	52.5	82.5
2242	101.25	123.75	-63.75	138.75	105	75	52.5	82.5
2243	90	112.5	-71.25	135	97.5	71.25	52.5	78.75
2244	90	108.75	-78.75	127.5	90	67.5	45	75
2245	101.25	112.5	-82.5	127.5	90	67.5	45	71.25
2246	112.5	116.25	-82.5	127.5	93.75	71.25	52.5	75
2247	120	120	-82.5	131.25	97.5	78.75	60	86.25
2248	127.5	116.25	-82.5	123.75	93.75	75	56.25	82.5
2249	120	120	-82.5	127.5	97.5	78.75	60	86.25
2250	116.25	127.5	-75	138.75	105	90	75	93.75
2251	101.25	120	-75	138.75	105	90	78.75	97.5
2252	108.75	127.5	-78.75	138.75	108.75	86.25	71.25	97.5
2253	150	161.25	-78.75	150	116.25	90	75	108.75
2254	161.25	161.25	-86.25	146.25	112.5	86.25	75	105
2255	153.75	146.25	-93.75	135	101.25	82.5	67.5	93.75
2256	142.5	142.5	-93.75	138.75	105	86.25	75	101.25
2257	135	150	-90	146.25	112.5	97.5	86.25	112.5
2258	138.75	153.75	-93.75	142.5	108.75	97.5	86.25	116.25
2259	150	153.75	-101.25	135	101.25	93.75	82.5	108.75
2260	165	153.75	-105	127.5	97.5	90	82.5	108.75
2261	168.75	161.25	-97.5	135	108.75	101.25	90	116.25
2262	157.5	161.25	-93.75	135	108.75	97.5	90	116.25
2263	146.25	161.25	-90	138.75	108.75	97.5	93.75	120
2264	168.75	183.75	-86.25	146.25	116.25	105	101.25	131.25
2265	180	187.5	-93.75	146.25	112.5	101.25	101.25	131.25
2266	168.75	172.5	-105	138.75	101.25	90	90	123.75
2267	172.5	172.5	-101.25	138.75	101.25	93.75	93.75	123.75
2268	187.5	183.75	-93.75	142.5	108.75	97.5	97.5	131.25
2269	187.5	191.25	-90	142.5	108.75	101.25	101.25	135
2270	195	191.25	-97.5	135	101.25	93.75	97.5	131.25
2271	195	176.25	-101.25	127.5	93.75	90	93.75	127.5
2272	172.5	161.25	-101.25	123.75	90	90	90	120
2273	180	176.25	-93.75	123.75	93.75	93.75	97.5	131.25
2274	195	195	-90	131.25	97.5	101.25	105	138.75
2275	187.5	191.25	-90	131.25	97.5	97.5	105	138.75
2276	180	180	-93.75	127.5	90	93.75	97.5	135
2277	187.5	187.5	-101.25	127.5	86.25	90	93.75	135
2278	161.25	172.5	-108.75	123.75	78.75	82.5	90	131.25
2279	161.25	168.75	-116.25	112.5	67.5	71.25	82.5	120
2280	202.5	195	-108.75	112.5	67.5	71.25	82.5	120
2281	198.75	198.75	-105	116.25	67.5	71.25	82.5	123.75
2282	187.5	187.5	-101.25	112.5	63.75	67.5	75	120
2283	180	176.25	-105	105	56.25	63.75	75	120
2284	172.5	168.75	-105	97.5	52.5	56.25	67.5	112.5
2285	161.25	161.25	-97.5	101.25	52.5	60	67.5	112.5
2286	168.75	172.5	-90	108.75	60	63.75	78.75	123.75
2287	183.75	195	-78.75	120	67.5	71.25	82.5	123.75
2288	183.75	195	-78.75	116.25	63.75	60	71.25	116.25
2289	168.75	183.75	-78.75	120	56.25	52.5	63.75	108.75
2290	146.25	168.75	-75	116.25	52.5	45	60	105
2291	131.25	157.5	-82.5	108.75	45	41.25	56.25	101.25
2292	138.75	161.25	-75	108.75	41.25	37.5	52.5	97.5
2293	157.5	165	-75	105	41.25	33.75	41.25	82.5
2294	153.75	161.25	-71.25	105	37.5	30	37.5	75
2295	138.75	146.25	-75	101.25	30	18.75	26.25	67.5
2296	123.75	127.5	-71.25	97.5	26.25	15	22.5	63.75
2297	105	127.5	-56.25	105	33.75	26.25	30	67.5
2298	86.25	123.75	-48.75	112.5	37.5	26.25	26.25	63.75
2299	93.75	120	-48.75	112.5	33.75	18.75	22.5	56.25
2300	93.75	127.5	-41.25	116.25	37.5	18.75	22.5	56.25
2301	86.25	135	-33.75	123.75	45	22.5	26.25	60
2302	86.25	127.5	-33.75	120	37.5	15	15	52.5
2303	78.75	105	-45	105	22.5	0	-3.75	33.75
2304	63.75	86.25	-48.75	97.5	11.25	-11.25	-11.25	22.5
2305	71.25	90	-45	93.75	11.25	-15	-11.25	18.75
2306	86.25	105	-41.25	97.5	18.75	-7.5	-7.5	26.25
2307	86.25	108.75	-41.25	97.5	18.75	-3.75	-7.5	30
2308	56.25	86.25	-37.5	90	15	-7.5	-15	18.75
2309	37.5	78.75	-26.25	90	15	-7.5	-15	15
2310	41.25	86.25	-15	93.75	18.75	-3.75	-11.25	18.75
2311	22.5	78.75	-22.5	97.5	18.75	-7.5	-15	18.75
2312	-11.25	52.5	-30	90	11.25	-18.75	-22.5	7.5
2313	-18.75	37.5	-33.75	82.5	3.75	-30	-37.5	-3.75
2314	7.5	41.25	-45	71.25	-7.5	-41.25	-48.75	-15
2315	3.75	30	-45	63.75	-15	-45	-52.5	-18.75
2316	-22.5	26.25	-41.25	67.5	-11.25	-41.25	-48.75	-15
2317	-30	26.25	-37.5	67.5	-7.5	-37.5	-45	-15
2318	-33.75	18.75	-41.25	60	-15	-48.75	-56.25	-22.5
2319	-33.75	18.75	-41.25	56.25	-18.75	-45	-52.5	-26.25
2320	-33.75	15	-37.5	48.75	-22.5	-45	-56.25	-26.25
2321	-26.25	7.5	-41.25	41.25	-26.25	-52.5	-63.75	-33.75
2322	-33.75	11.25	-37.5	45	-22.5	-48.75	-60	-33.75
2323	-48.75	11.25	-30	45	-22.5	-48.75	-60	-33.75
2324	-41.25	15	-30	45	-26.25	-48.75	-60	-30
2325	-26.25	37.5	-22.5	56.25	-15	-45	-52.5	-22.5
2326	-33.75	33.75	-26.25	48.75	-22.5	-52.5	-63.75	-30
2327	-22.5	30	-37.5	37.5	-33.75	-60	-71.25	-41.25
2328	-30	22.5	-45	30	-37.5	-67.5	-78.75	-48.75
2329	-52.5	11.25	-45	26.25	-41.25	-67.5	-78.75	-52.5
2330	-63.75	0	-48.75	22.5	-45	-71.25	-82.5	-52.5
2331	-60	-7.5	-52.5	15	-48.75	-75	-82.5	-56.25
2332	-45	0	-48.75	15	-48.75	-71.25	-78.75	-52.5
2333	-48.75	7.5	-45	15	-45	-67.5	-75	-48.75
2334	-52.5	7.5	-41.25	18.75	-45	-67.5	-75	-48.75
2335	-33.75	11.25	-48.75	11.25	-48.75	-71.25	-82.5	-56.25
2336	-37.5	15	-45	15	-45	-71.25	-78.75	-52.5
2337	-56.25	11.25	-45	22.5	-45	-67.5	-78.75	-52.5
2338	-52.5	7.5	-48.75	15	-52.5	-78.75	-86.25	-56.25
2339	-45	3.75	-56.25	3.75	-63.75	-86.25	-97.5	-67.5
2340	-41.25	15	-48.75	11.25	-52.5	-78.75	-90	-60
2341	-56.25	7.5	-45	18.75	-45	-71.25	-82.5	-52.5
2342	-56.25	3.75	-48.75	15	-48.75	-75	-86.25	-56.25
2343	-37.5	11.25	-48.75	11.25	-52.5	-75	-82.5	-56.25
2344	-45	7.5	-48.75	11.25	-52.5	-71.25	-82.5	-56.25
2345	-67.5	-3.75	-45	7.5	-52.5	-71.25	-82.5	-56.25
2346	-78.75	-18.75	-48.75	3.75	-56.25	-75	-86.25	-63.75
2347	-90	-30	-52.5	7.5	-56.25	-78.75	-86.25	-60
2348	-86.25	-15	-41.25	15	-48.75	-71.25	-78.75	-52.5
2349	-63.75	7.5	-41.25	22.5	-41.25	-63.75	-67.5	-48.75
2350	-67.5	0	-45	22.5	-41.25	-67.5	-71.25	-52.5
2351	-90	-26.25	-56.25	11.25	-52.5	-78.75	-93.75	-63.75
2352	-101.25	-33.75	-60	7.5	-56.25	-82.5	-93.75	-67.5
2353	-97.5	-26.25	-60	7.5	-56.25	-78.75	-86.25	-63.75
2354	-78.75	-15	-60	7.5	-56.25	-75	-86.25	-63.75
2355	-60	-7.5	-60	7.5	-56.25	-75	-86.25	-67.5
2356	-63.75	-15	-63.75	3.75	-60	-75	-86.25	-67.5
2357	-75	-18.75	-56.25	7.5	-56.25	-71.25	-82.5	-63.75
2358	-63.75	0	-48.75	18.75	-45	-60	-75	-56.25
2359	-45	15	-45	22.5	-37.5	-56.25	-67.5	-48.75
