samplenr	I	II	V1	V2	V3	V4	V5	V6	measurement
0	-727.5	-236.25	206.25	165	198.75	41.25	82.5	105
1	-735	-262.5	232.5	180	191.25	22.5	63.75	86.25
2	-757.5	-296.25	266.25	206.25	187.5	0	30	52.5
3	-772.5	-333.75	307.5	240	183.75	-30	-3.75	18.75
4	-783.75	-367.5	348.75	266.25	168.75	-63.75	-48.75	-22.5
5	-787.5	-367.5	386.25	292.5	161.25	-90	-75	-48.75
6	-768.75	-352.5	408.75	326.25	176.25	-90	-82.5	-60
7	-738.75	-318.75	446.25	386.25	225	-52.5	-48.75	-30
8	-705	-258.75	491.25	461.25	288.75	7.5	3.75	18.75
9	-648.75	-187.5	521.25	536.25	352.5	67.5	63.75	71.25
10	-596.25	-127.5	532.5	596.25	423.75	135	123.75	127.5
11	-536.25	-52.5	540	645	491.25	206.25	198.75	198.75
12	-472.5	45	532.5	686.25	555	288.75	285	288.75
13	-405	142.5	513.75	738.75	633.75	382.5	382.5	382.5
14	-348.75	251.25	506.25	795	731.25	502.5	506.25	495
15	-330	371.25	483.75	817.5	821.25	633.75	648.75	641.25
16	-266.25	525	435	817.5	915	772.5	802.5	795
17	-172.5	701.25	412.5	862.5	1038.75	933.75	971.25	956.25
18	-116.25	888.75	386.25	903.75	1162.5	1102.5	1151.25	1132.5
19	-71.25	1106.25	288.75	877.5	1256.25	1267.5	1350	1338.75
20	-52.5	1263.75	165	813.75	1320	1417.5	1526.25	1518.75
21	-56.25	1338.75	71.25	761.25	1391.25	1552.5	1676.25	1657.5
22	-63.75	1372.5	-11.25	663.75	1421.25	1653.75	1788.75	1755
23	-116.25	1357.5	-30	618.75	1470	1740	1867.5	1803.75
24	-172.5	1305	-3.75	660	1560	1811.25	1901.25	1800
25	-232.5	1260	-33.75	600	1567.5	1818.75	1893.75	1766.25
26	-333.75	1196.25	-93.75	453.75	1503.75	1770	1837.5	1702.5
27	-435	1046.25	-112.5	315	1383.75	1635	1687.5	1556.25
28	-536.25	858.75	-82.5	217.5	1218.75	1421.25	1470	1353.75
29	-626.25	678.75	-71.25	112.5	1012.5	1155	1211.25	1132.5
30	-723.75	498.75	-93.75	-30	753.75	847.5	926.25	903.75
31	-843.75	330	-116.25	-202.5	472.5	543.75	652.5	678.75
32	-918.75	187.5	-123.75	-318.75	266.25	322.5	446.25	502.5
33	-952.5	63.75	-112.5	-330	183.75	198.75	303.75	356.25
34	-945	-33.75	-101.25	-288.75	176.25	146.25	217.5	251.25
35	-907.5	-86.25	-93.75	-236.25	195	146.25	202.5	221.25
36	-896.25	-97.5	-71.25	-161.25	243.75	183.75	236.25	247.5
37	-888.75	-108.75	-67.5	-116.25	255	191.25	240	251.25
38	-858.75	-127.5	-75	-120	206.25	146.25	206.25	225
39	-843.75	-146.25	-60	-112.5	168.75	112.5	183.75	210
40	-817.5	-142.5	-26.25	-60	183.75	116.25	187.5	217.5
41	-780	-120	11.25	3.75	217.5	138.75	206.25	232.5
42	-750	-116.25	30	45	240	150	210	236.25
43	-708.75	-123.75	48.75	78.75	255	157.5	210	228.75
44	-705	-116.25	97.5	138.75	292.5	180	225	232.5
45	-746.25	-75	165	213.75	356.25	225	262.5	266.25
46	-757.5	-60	195	240	371.25	232.5	266.25	270
47	-708.75	-78.75	195	232.5	348.75	206.25	240	240
48	-660	-97.5	187.5	225	330	183.75	213.75	217.5
49	-648.75	-116.25	191.25	232.5	330	176.25	210	213.75
50	-671.25	-131.25	195	232.5	326.25	172.5	206.25	213.75
51	-690	-142.5	198.75	228.75	318.75	165	198.75	206.25
52	-697.5	-161.25	198.75	217.5	300	150	183.75	191.25
53	-690	-176.25	191.25	210	288.75	138.75	172.5	183.75
54	-697.5	-187.5	187.5	206.25	281.25	127.5	165	172.5
55	-697.5	-191.25	191.25	202.5	277.5	123.75	157.5	165
56	-693.75	-191.25	187.5	191.25	262.5	108.75	146.25	153.75
57	-716.25	-195	187.5	187.5	258.75	105	142.5	153.75
58	-708.75	-183.75	191.25	191.25	258.75	105	142.5	150
59	-690	-172.5	195	198.75	266.25	108.75	146.25	153.75
60	-701.25	-157.5	206.25	213.75	273.75	120	157.5	168.75
61	-675	-142.5	195	210	266.25	108.75	150	165
62	-656.25	-157.5	187.5	202.5	262.5	105	146.25	157.5
63	-697.5	-187.5	202.5	210	273.75	112.5	153.75	165
64	-701.25	-195	210	213.75	273.75	116.25	153.75	168.75
65	-682.5	-187.5	191.25	210	266.25	108.75	146.25	161.25
66	-678.75	-187.5	183.75	198.75	258.75	101.25	142.5	157.5
67	-663.75	-180	187.5	195	255	101.25	142.5	153.75
68	-648.75	-161.25	191.25	198.75	255	101.25	142.5	157.5
69	-667.5	-153.75	202.5	202.5	255	108.75	153.75	165
70	-686.25	-165	206.25	210	266.25	112.5	157.5	168.75
71	-678.75	-176.25	202.5	221.25	281.25	120	161.25	172.5
72	-678.75	-168.75	206.25	228.75	281.25	120	165	180
73	-667.5	-161.25	210	228.75	273.75	116.25	161.25	180
74	-652.5	-168.75	195	213.75	266.25	108.75	153.75	165
75	-648.75	-168.75	183.75	206.25	266.25	105	150	157.5
76	-645	-157.5	195	221.25	277.5	120	161.25	172.5
77	-633.75	-150	191.25	210	262.5	112.5	157.5	172.5
78	-648.75	-168.75	183.75	206.25	258.75	108.75	153.75	168.75
79	-656.25	-191.25	183.75	213.75	266.25	112.5	153.75	165
80	-656.25	-195	191.25	217.5	266.25	116.25	157.5	168.75
81	-663.75	-176.25	202.5	228.75	281.25	123.75	168.75	176.25
82	-652.5	-161.25	202.5	236.25	288.75	127.5	172.5	176.25
83	-637.5	-146.25	202.5	240	288.75	131.25	172.5	180
84	-633.75	-127.5	206.25	247.5	296.25	135	180	187.5
85	-626.25	-131.25	198.75	243.75	288.75	127.5	172.5	180
86	-618.75	-146.25	187.5	232.5	281.25	123.75	168.75	176.25
87	-626.25	-150	191.25	236.25	288.75	131.25	176.25	183.75
88	-641.25	-157.5	187.5	240	292.5	131.25	176.25	187.5
89	-660	-150	187.5	243.75	296.25	135	180	191.25
90	-667.5	-146.25	191.25	247.5	300	142.5	187.5	195
91	-648.75	-157.5	183.75	236.25	288.75	135	176.25	183.75
92	-615	-153.75	172.5	228.75	285	123.75	168.75	168.75
93	-615	-150	180	236.25	292.5	131.25	176.25	180
94	-660	-153.75	191.25	247.5	303.75	142.5	183.75	187.5
95	-667.5	-142.5	202.5	258.75	311.25	150	191.25	195
96	-600	-123.75	195	255	296.25	142.5	187.5	191.25
97	-551.25	-116.25	183.75	251.25	292.5	138.75	187.5	191.25
98	-570	-135	176.25	251.25	303.75	138.75	183.75	191.25
99	-607.5	-146.25	176.25	255	307.5	146.25	191.25	198.75
100	-618.75	-127.5	176.25	255	307.5	150	195	198.75
101	-615	-108.75	183.75	262.5	315	157.5	202.5	206.25
102	-607.5	-123.75	183.75	258.75	315	157.5	202.5	210
103	-588.75	-135	165	240	296.25	142.5	187.5	195
104	-588.75	-123.75	168.75	243.75	300	146.25	191.25	195
105	-585	-112.5	183.75	258.75	318.75	157.5	202.5	206.25
106	-573.75	-116.25	180	255	307.5	150	198.75	198.75
107	-566.25	-116.25	168.75	251.25	300	142.5	191.25	195
108	-577.5	-105	180	270	318.75	157.5	206.25	210
109	-577.5	-112.5	176.25	266.25	318.75	157.5	206.25	210
110	-573.75	-120	165	255	307.5	150	198.75	206.25
111	-573.75	-112.5	168.75	258.75	311.25	157.5	206.25	213.75
112	-566.25	-108.75	172.5	258.75	311.25	157.5	206.25	213.75
113	-566.25	-112.5	168.75	255	307.5	153.75	202.5	210
114	-573.75	-112.5	165	247.5	300	150	198.75	206.25
115	-592.5	-116.25	165	240	296.25	146.25	198.75	202.5
116	-585	-116.25	161.25	236.25	292.5	138.75	191.25	195
117	-562.5	-108.75	157.5	236.25	288.75	138.75	191.25	195
118	-562.5	-105	157.5	240	288.75	138.75	191.25	195
119	-570	-101.25	157.5	236.25	285	135	191.25	195
120	-547.5	-82.5	172.5	251.25	288.75	142.5	202.5	210
121	-502.5	-75	168.75	255	292.5	146.25	206.25	217.5
122	-510	-97.5	157.5	255	300	146.25	206.25	217.5
123	-543.75	-108.75	165	243.75	292.5	142.5	202.5	213.75
124	-543.75	-97.5	172.5	243.75	288.75	142.5	202.5	217.5
125	-540	-90	165	243.75	288.75	142.5	206.25	217.5
126	-555	-93.75	153.75	232.5	277.5	131.25	198.75	210
127	-543.75	-90	150	217.5	262.5	120	187.5	202.5
128	-525	-86.25	146.25	210	255	116.25	183.75	195
129	-528.75	-101.25	146.25	213.75	255	116.25	183.75	195
130	-555	-123.75	157.5	217.5	258.75	120	187.5	202.5
131	-562.5	-116.25	168.75	225	262.5	123.75	198.75	210
132	-536.25	-82.5	165	225	262.5	123.75	198.75	213.75
133	-510	-67.5	146.25	202.5	236.25	105	180	202.5
134	-513.75	-75	142.5	198.75	228.75	101.25	180	198.75
135	-528.75	-93.75	146.25	206.25	243.75	112.5	191.25	210
136	-547.5	-112.5	157.5	210	247.5	112.5	191.25	217.5
137	-547.5	-108.75	157.5	202.5	236.25	105	187.5	213.75
138	-525	-97.5	150	187.5	221.25	97.5	176.25	206.25
139	-510	-90	142.5	176.25	206.25	86.25	165	191.25
140	-517.5	-93.75	142.5	168.75	195	78.75	161.25	187.5
141	-532.5	-97.5	150	183.75	213.75	90	172.5	198.75
142	-528.75	-97.5	150	187.5	213.75	90	172.5	202.5
143	-528.75	-82.5	161.25	187.5	213.75	93.75	183.75	213.75
144	-513.75	-52.5	168.75	198.75	225	101.25	191.25	225
145	-487.5	-48.75	157.5	191.25	213.75	93.75	180	213.75
146	-506.25	-71.25	146.25	180	202.5	82.5	172.5	210
147	-543.75	-86.25	157.5	180	202.5	86.25	176.25	213.75
148	-525	-86.25	153.75	180	198.75	82.5	172.5	210
149	-502.5	-86.25	150	172.5	191.25	71.25	165	202.5
150	-498.75	-86.25	150	168.75	187.5	67.5	161.25	198.75
151	-506.25	-86.25	146.25	161.25	180	63.75	153.75	191.25
152	-521.25	-71.25	150	161.25	180	60	150	191.25
153	-543.75	-63.75	161.25	172.5	187.5	71.25	161.25	198.75
154	-551.25	-71.25	172.5	183.75	195	75	165	202.5
155	-540	-78.75	180	183.75	191.25	71.25	161.25	198.75
156	-536.25	-75	165	183.75	187.5	63.75	153.75	191.25
157	-536.25	-60	161.25	191.25	195	67.5	157.5	195
158	-536.25	-52.5	180	198.75	202.5	78.75	168.75	202.5
159	-528.75	-52.5	183.75	202.5	210	86.25	172.5	206.25
160	-540	-71.25	183.75	206.25	206.25	82.5	165	202.5
161	-547.5	-90	176.25	191.25	191.25	67.5	150	187.5
162	-543.75	-101.25	176.25	191.25	195	63.75	146.25	180
163	-547.5	-108.75	183.75	198.75	206.25	71.25	150	180
164	-555	-112.5	198.75	210	210	78.75	157.5	180
165	-585	-123.75	210	221.25	221.25	90	168.75	187.5
166	-588.75	-116.25	213.75	221.25	221.25	86.25	161.25	183.75
167	-562.5	-101.25	213.75	225	225	82.5	153.75	172.5
168	-558.75	-82.5	217.5	236.25	236.25	90	157.5	176.25
169	-581.25	-78.75	225	236.25	240	90	161.25	180
170	-603.75	-112.5	217.5	228.75	228.75	86.25	153.75	172.5
171	-630	-142.5	210	225	228.75	82.5	146.25	165
172	-618.75	-131.25	213.75	225	236.25	86.25	146.25	165
173	-577.5	-116.25	217.5	221.25	232.5	82.5	142.5	157.5
174	-588.75	-131.25	217.5	221.25	225	82.5	142.5	153.75
175	-626.25	-150	221.25	217.5	217.5	78.75	138.75	150
176	-637.5	-157.5	217.5	213.75	221.25	71.25	135	142.5
177	-637.5	-157.5	221.25	221.25	232.5	75	131.25	138.75
178	-656.25	-157.5	236.25	228.75	240	82.5	138.75	146.25
179	-667.5	-153.75	236.25	232.5	240	82.5	142.5	142.5
180	-630	-123.75	232.5	236.25	240	78.75	135	138.75
181	-603.75	-101.25	228.75	236.25	236.25	75	131.25	138.75
182	-615	-127.5	225	221.25	228.75	67.5	123.75	131.25
183	-648.75	-157.5	217.5	210	221.25	63.75	120	123.75
184	-705	-161.25	240	228.75	236.25	78.75	135	142.5
185	-712.5	-165	243.75	225	228.75	75	131.25	138.75
186	-660	-176.25	225	202.5	210	56.25	112.5	116.25
187	-641.25	-180	217.5	195	213.75	56.25	108.75	112.5
188	-663.75	-191.25	221.25	195	213.75	56.25	108.75	112.5
189	-686.25	-191.25	228.75	202.5	217.5	60	112.5	112.5
190	-663.75	-157.5	236.25	210	228.75	67.5	120	120
191	-652.5	-150	236.25	210	225	63.75	120	116.25
192	-667.5	-168.75	236.25	210	221.25	60	116.25	116.25
193	-675	-180	232.5	213.75	225	56.25	112.5	112.5
194	-671.25	-187.5	221.25	202.5	217.5	48.75	101.25	105
195	-667.5	-183.75	217.5	198.75	213.75	48.75	101.25	105
196	-671.25	-180	221.25	198.75	217.5	52.5	108.75	112.5
197	-678.75	-191.25	225	198.75	217.5	52.5	108.75	112.5
198	-682.5	-198.75	217.5	191.25	213.75	45	101.25	105
199	-682.5	-202.5	210	180	202.5	37.5	93.75	93.75
200	-686.25	-195	221.25	183.75	206.25	45	97.5	97.5
201	-697.5	-191.25	232.5	202.5	221.25	56.25	108.75	108.75
202	-697.5	-195	225	202.5	221.25	48.75	101.25	101.25
203	-682.5	-183.75	225	198.75	217.5	48.75	101.25	101.25
204	-652.5	-165	228.75	206.25	221.25	52.5	108.75	108.75
205	-637.5	-157.5	228.75	210	225	52.5	108.75	108.75
206	-656.25	-168.75	217.5	198.75	217.5	45	101.25	97.5
207	-667.5	-176.25	221.25	202.5	221.25	48.75	101.25	101.25
208	-652.5	-172.5	217.5	191.25	206.25	41.25	97.5	97.5
209	-645	-176.25	206.25	172.5	183.75	30	86.25	93.75
210	-667.5	-195	202.5	180	206.25	37.5	93.75	93.75
211	-705	-202.5	225	202.5	236.25	63.75	116.25	112.5
212	-705	-198.75	236.25	206.25	232.5	63.75	116.25	112.5
213	-675	-198.75	221.25	191.25	213.75	48.75	101.25	97.5
214	-671.25	-202.5	217.5	187.5	206.25	41.25	97.5	93.75
215	-697.5	-191.25	228.75	202.5	221.25	52.5	108.75	101.25
216	-686.25	-157.5	228.75	210	228.75	56.25	112.5	108.75
217	-660	-161.25	221.25	206.25	221.25	48.75	105	101.25
218	-667.5	-195	210	191.25	210	37.5	93.75	90
219	-678.75	-202.5	210	191.25	210	41.25	97.5	90
220	-671.25	-191.25	217.5	195	213.75	45	97.5	93.75
221	-671.25	-180	225	206.25	225	52.5	108.75	105
222	-660	-183.75	221.25	202.5	225	56.25	108.75	108.75
223	-645	-195	210	187.5	210	45	97.5	93.75
224	-660	-198.75	213.75	187.5	210	45	97.5	93.75
225	-690	-195	217.5	195	213.75	48.75	101.25	93.75
226	-705	-195	221.25	195	217.5	48.75	101.25	93.75
227	-690	-176.25	225	195	217.5	48.75	101.25	93.75
228	-667.5	-150	225	202.5	221.25	52.5	105	101.25
229	-686.25	-172.5	221.25	210	228.75	56.25	108.75	101.25
230	-690	-198.75	210	191.25	210	45	97.5	90
231	-656.25	-202.5	191.25	161.25	172.5	15	75	71.25
232	-667.5	-202.5	195	168.75	180	18.75	75	75
233	-708.75	-217.5	198.75	183.75	206.25	33.75	86.25	82.5
234	-675	-213.75	206.25	187.5	210	37.5	90	86.25
235	-630	-176.25	210	183.75	206.25	41.25	97.5	90
236	-660	-172.5	217.5	195	217.5	52.5	108.75	101.25
237	-678.75	-195	213.75	195	217.5	48.75	101.25	93.75
238	-667.5	-198.75	213.75	187.5	210	45	97.5	86.25
239	-686.25	-195	221.25	191.25	213.75	48.75	105	93.75
240	-697.5	-198.75	225	206.25	228.75	60	108.75	101.25
241	-675	-206.25	213.75	202.5	221.25	48.75	105	97.5
242	-660	-210	191.25	183.75	202.5	37.5	90	86.25
243	-660	-198.75	195	180	202.5	41.25	93.75	90
244	-663.75	-180	213.75	187.5	213.75	48.75	101.25	93.75
245	-663.75	-183.75	210	183.75	210	45	97.5	90
246	-667.5	-206.25	195	176.25	198.75	33.75	86.25	78.75
247	-671.25	-225	187.5	165	191.25	22.5	75	71.25
248	-667.5	-221.25	198.75	168.75	191.25	26.25	82.5	75
249	-701.25	-210	210	180	202.5	37.5	90	82.5
250	-727.5	-206.25	210	180	198.75	37.5	93.75	82.5
251	-693.75	-195	206.25	180	198.75	33.75	90	78.75
252	-645	-180	206.25	187.5	210	41.25	97.5	86.25
253	-648.75	-183.75	210	191.25	210	45	101.25	93.75
254	-656.25	-180	210	187.5	198.75	41.25	93.75	90
255	-648.75	-172.5	206.25	183.75	202.5	41.25	93.75	90
256	-648.75	-176.25	202.5	183.75	206.25	41.25	93.75	90
257	-656.25	-187.5	210	187.5	210	48.75	101.25	97.5
258	-667.5	-202.5	210	187.5	210	45	101.25	90
259	-663.75	-206.25	210	176.25	198.75	37.5	93.75	82.5
260	-671.25	-198.75	221.25	183.75	202.5	45	101.25	90
261	-675	-180	236.25	202.5	225	60	116.25	101.25
262	-675	-165	232.5	198.75	221.25	56.25	108.75	93.75
263	-667.5	-161.25	228.75	191.25	210	45	101.25	86.25
264	-645	-142.5	243.75	210	225	60	112.5	101.25
265	-641.25	-146.25	251.25	217.5	232.5	67.5	120	108.75
266	-648.75	-165	243.75	213.75	225	60	112.5	105
267	-645	-161.25	236.25	213.75	221.25	56.25	105	97.5
268	-633.75	-146.25	243.75	217.5	228.75	60	108.75	101.25
269	-667.5	-146.25	255	225	236.25	71.25	120	112.5
270	-697.5	-161.25	255	221.25	228.75	71.25	120	112.5
271	-667.5	-161.25	240	206.25	217.5	56.25	105	93.75
272	-637.5	-135	243.75	206.25	221.25	56.25	101.25	90
273	-641.25	-120	255	217.5	228.75	63.75	108.75	97.5
274	-663.75	-123.75	270	225	232.5	75	123.75	112.5
275	-652.5	-116.25	270	232.5	240	78.75	131.25	116.25
276	-641.25	-112.5	270	240	247.5	90	138.75	131.25
277	-648.75	-127.5	266.25	236.25	251.25	90	146.25	142.5
278	-645	-142.5	251.25	225	243.75	82.5	138.75	135
279	-645	-135	225	210	228.75	71.25	123.75	123.75
280	-630	-116.25	210	198.75	225	67.5	123.75	120
281	-615	-120	198.75	195	221.25	71.25	127.5	127.5
282	-626.25	-142.5	187.5	187.5	213.75	67.5	123.75	123.75
283	-626.25	-153.75	176.25	180	206.25	63.75	120	116.25
284	-615	-150	168.75	176.25	206.25	63.75	120	116.25
285	-600	-146.25	161.25	172.5	206.25	60	116.25	112.5
286	-607.5	-150	161.25	165	198.75	52.5	108.75	108.75
287	-645	-150	165	168.75	202.5	52.5	112.5	112.5
288	-656.25	-153.75	168.75	176.25	206.25	56.25	116.25	120
289	-641.25	-176.25	153.75	153.75	183.75	41.25	101.25	105
290	-622.5	-180	142.5	142.5	168.75	30	90	97.5
291	-603.75	-153.75	157.5	157.5	187.5	41.25	97.5	105
292	-588.75	-135	176.25	168.75	198.75	52.5	108.75	112.5
293	-607.5	-150	165	157.5	187.5	45	105	108.75
294	-637.5	-172.5	165	150	180	37.5	97.5	105
295	-656.25	-180	172.5	146.25	176.25	37.5	97.5	101.25
296	-667.5	-183.75	172.5	150	183.75	37.5	93.75	93.75
297	-656.25	-187.5	168.75	142.5	176.25	22.5	78.75	78.75
298	-656.25	-187.5	161.25	131.25	161.25	11.25	67.5	67.5
299	-660	-168.75	161.25	138.75	165	15	71.25	71.25
300	-633.75	-138.75	172.5	146.25	172.5	22.5	78.75	78.75
301	-615	-157.5	168.75	138.75	161.25	11.25	63.75	71.25
302	-648.75	-210	153.75	120	138.75	-7.5	48.75	56.25
303	-693.75	-236.25	161.25	120	146.25	0	56.25	60
304	-705	-255	168.75	131.25	157.5	11.25	67.5	71.25
305	-675	-255	161.25	116.25	142.5	-3.75	52.5	56.25
306	-656.25	-240	153.75	105	127.5	-15	45	48.75
307	-686.25	-251.25	157.5	101.25	131.25	-15	45	48.75
308	-708.75	-273.75	153.75	97.5	123.75	-22.5	37.5	37.5
309	-708.75	-273.75	150	93.75	112.5	-26.25	30	30
310	-720	-251.25	153.75	97.5	120	-22.5	33.75	41.25
311	-716.25	-232.5	157.5	105	131.25	-15	41.25	45
312	-690	-225	157.5	108.75	135	-15	41.25	45
313	-697.5	-240	157.5	108.75	127.5	-18.75	37.5	45
314	-705	-251.25	150	101.25	120	-26.25	37.5	45
315	-678.75	-240	142.5	101.25	123.75	-26.25	33.75	41.25
316	-667.5	-236.25	150	108.75	135	-18.75	41.25	48.75
317	-667.5	-258.75	153.75	105	131.25	-18.75	41.25	48.75
318	-663.75	-270	142.5	97.5	120	-26.25	33.75	41.25
319	-675	-255	131.25	82.5	108.75	-37.5	22.5	30
320	-708.75	-258.75	138.75	82.5	108.75	-37.5	22.5	30
321	-723.75	-262.5	146.25	90	116.25	-33.75	26.25	30
322	-708.75	-251.25	157.5	97.5	120	-26.25	33.75	37.5
323	-705	-251.25	161.25	108.75	127.5	-22.5	37.5	41.25
324	-712.5	-251.25	165	116.25	138.75	-15	45	48.75
325	-690	-240	165	123.75	142.5	-11.25	48.75	52.5
326	-678.75	-243.75	161.25	116.25	135	-15	48.75	52.5
327	-690	-258.75	157.5	112.5	131.25	-18.75	41.25	45
328	-678.75	-273.75	161.25	112.5	127.5	-33.75	26.25	30
329	-667.5	-296.25	176.25	112.5	108.75	-56.25	0	3.75
330	-697.5	-315	217.5	138.75	101.25	-75	-22.5	-22.5
331	-746.25	-322.5	262.5	176.25	101.25	-101.25	-56.25	-60
332	-738.75	-352.5	303.75	198.75	82.5	-138.75	-105	-105
333	-705	-397.5	333.75	213.75	63.75	-176.25	-146.25	-146.25
334	-697.5	-393.75	375	262.5	86.25	-168.75	-138.75	-138.75
335	-686.25	-337.5	423.75	337.5	146.25	-123.75	-101.25	-105
336	-637.5	-258.75	453.75	405	195	-86.25	-67.5	-75
337	-596.25	-202.5	472.5	468.75	255	-33.75	-22.5	-33.75
338	-570	-183.75	483.75	525	315	26.25	37.5	22.5
339	-506.25	-146.25	495	570	375	93.75	105	86.25
340	-420	-41.25	495	611.25	442.5	180	195	176.25
341	-360	86.25	491.25	675	532.5	285	303.75	277.5
342	-318.75	191.25	487.5	738.75	633.75	401.25	420	390
343	-232.5	318.75	461.25	753.75	712.5	521.25	551.25	513.75
344	-131.25	480	405	742.5	787.5	648.75	693.75	656.25
345	-112.5	652.5	382.5	795	918.75	813.75	866.25	825
346	-108.75	832.5	360	847.5	1046.25	978.75	1042.5	993.75
347	-52.5	1053.75	288.75	828.75	1136.25	1143.75	1233.75	1192.5
348	-7.5	1252.5	180	795	1226.25	1312.5	1436.25	1402.5
349	18.75	1338.75	52.5	738.75	1297.5	1440	1582.5	1545
350	22.5	1372.5	-52.5	633.75	1327.5	1537.5	1687.5	1638.75
351	-26.25	1361.25	-93.75	566.25	1365	1627.5	1773.75	1698.75
352	-101.25	1293.75	-63.75	600	1451.25	1710	1826.25	1706.25
353	-187.5	1218.75	-78.75	566.25	1481.25	1736.25	1826.25	1676.25
354	-281.25	1158.75	-123.75	438.75	1432.5	1706.25	1788.75	1631.25
355	-352.5	1050	-142.5	315	1338.75	1601.25	1672.5	1511.25
356	-431.25	873.75	-127.5	206.25	1188.75	1398.75	1458.75	1305
357	-543.75	690	-105	101.25	982.5	1136.25	1203.75	1087.5
358	-648.75	517.5	-112.5	-41.25	716.25	832.5	922.5	862.5
359	-750	371.25	-123.75	-191.25	457.5	540	656.25	648.75
360	-817.5	251.25	-142.5	-318.75	240	296.25	435	457.5
361	-840	131.25	-142.5	-360	123.75	142.5	266.25	296.25
362	-855	-3.75	-135	-333.75	93.75	71.25	161.25	180
363	-870	-97.5	-135	-300	97.5	56.25	131.25	135
364	-840	-112.5	-138.75	-243.75	127.5	78.75	142.5	135
365	-806.25	-112.5	-127.5	-191.25	146.25	97.5	165	150
366	-802.5	-135	-105	-168.75	127.5	82.5	157.5	150
367	-780	-157.5	-97.5	-150	101.25	52.5	135	135
368	-746.25	-165	-82.5	-127.5	86.25	33.75	116.25	123.75
369	-731.25	-150	-45	-75	105	41.25	127.5	131.25
370	-712.5	-120	3.75	7.5	165	82.5	157.5	161.25
371	-678.75	-101.25	33.75	67.5	202.5	105	172.5	168.75
372	-645	-82.5	71.25	123.75	240	123.75	187.5	176.25
373	-622.5	-78.75	108.75	165	262.5	135	191.25	176.25
374	-622.5	-101.25	123.75	176.25	258.75	123.75	176.25	161.25
375	-633.75	-127.5	135	176.25	251.25	116.25	165	150
376	-626.25	-135	146.25	187.5	255	116.25	161.25	150
377	-607.5	-142.5	150	187.5	251.25	108.75	153.75	142.5
378	-607.5	-157.5	146.25	176.25	232.5	90	138.75	127.5
379	-637.5	-168.75	142.5	161.25	213.75	71.25	116.25	105
380	-682.5	-168.75	157.5	172.5	221.25	75	120	108.75
381	-671.25	-150	168.75	180	225	82.5	127.5	116.25
382	-633.75	-146.25	161.25	168.75	210	67.5	116.25	101.25
383	-630	-153.75	157.5	168.75	206.25	56.25	108.75	93.75
384	-626.25	-150	161.25	172.5	202.5	56.25	105	97.5
385	-626.25	-150	165	176.25	202.5	48.75	101.25	93.75
386	-626.25	-165	165	176.25	198.75	48.75	97.5	93.75
387	-618.75	-183.75	161.25	168.75	191.25	45	101.25	93.75
388	-618.75	-187.5	165	172.5	191.25	48.75	105	101.25
389	-615	-191.25	168.75	180	198.75	52.5	105	101.25
390	-626.25	-198.75	168.75	176.25	198.75	48.75	101.25	97.5
391	-645	-202.5	161.25	165	183.75	37.5	90	86.25
392	-641.25	-195	157.5	161.25	180	33.75	86.25	78.75
393	-622.5	-187.5	157.5	161.25	183.75	37.5	90	82.5
394	-615	-183.75	165	168.75	187.5	41.25	93.75	82.5
395	-618.75	-180	165	176.25	187.5	41.25	97.5	86.25
396	-596.25	-153.75	165	176.25	187.5	37.5	97.5	86.25
397	-573.75	-131.25	157.5	172.5	183.75	33.75	90	82.5
398	-592.5	-131.25	157.5	180	187.5	41.25	97.5	90
399	-611.25	-138.75	168.75	187.5	198.75	52.5	108.75	101.25
400	-600	-153.75	172.5	187.5	202.5	52.5	112.5	105
401	-562.5	-172.5	157.5	176.25	187.5	41.25	101.25	90
402	-562.5	-172.5	157.5	180	187.5	41.25	101.25	90
403	-615	-165	168.75	187.5	202.5	52.5	112.5	105
404	-645	-161.25	176.25	191.25	202.5	60	116.25	108.75
405	-626.25	-172.5	168.75	187.5	195	52.5	108.75	97.5
406	-585	-176.25	153.75	180	191.25	45	97.5	86.25
407	-562.5	-168.75	157.5	187.5	198.75	52.5	105	93.75
408	-547.5	-142.5	172.5	206.25	213.75	63.75	120	108.75
409	-540	-120	168.75	206.25	213.75	63.75	120	108.75
410	-547.5	-127.5	161.25	202.5	210	63.75	120	108.75
411	-558.75	-146.25	161.25	202.5	213.75	67.5	123.75	112.5
412	-566.25	-157.5	161.25	202.5	213.75	67.5	123.75	112.5
413	-581.25	-157.5	161.25	206.25	210	67.5	123.75	112.5
414	-573.75	-146.25	161.25	202.5	210	67.5	123.75	116.25
415	-551.25	-142.5	153.75	195	202.5	60	120	108.75
416	-558.75	-150	150	195	210	63.75	116.25	108.75
417	-570	-150	150	198.75	210	63.75	120	105
418	-570	-146.25	153.75	206.25	213.75	67.5	123.75	112.5
419	-566.25	-135	165	221.25	225	78.75	138.75	123.75
420	-536.25	-116.25	172.5	228.75	232.5	90	146.25	135
421	-517.5	-120	161.25	228.75	225	86.25	142.5	131.25
422	-540	-138.75	157.5	221.25	221.25	82.5	138.75	127.5
423	-536.25	-131.25	153.75	221.25	228.75	86.25	142.5	131.25
424	-525	-120	157.5	228.75	232.5	90	146.25	138.75
425	-525	-127.5	157.5	217.5	221.25	82.5	142.5	135
426	-543.75	-135	157.5	217.5	225	86.25	142.5	135
427	-555	-127.5	165	228.75	236.25	97.5	153.75	142.5
428	-525	-116.25	150	217.5	228.75	86.25	142.5	131.25
429	-510	-93.75	138.75	210	217.5	75	131.25	116.25
430	-547.5	-101.25	150	221.25	228.75	86.25	142.5	127.5
431	-551.25	-123.75	165	240	247.5	101.25	157.5	142.5
432	-536.25	-127.5	165	247.5	251.25	105	165	150
433	-521.25	-116.25	153.75	240	243.75	97.5	153.75	142.5
434	-506.25	-120	142.5	228.75	232.5	90	146.25	135
435	-506.25	-116.25	146.25	236.25	243.75	101.25	157.5	150
436	-521.25	-112.5	150	236.25	243.75	105	165	157.5
437	-502.5	-108.75	150	228.75	236.25	101.25	161.25	150
438	-468.75	-105	146.25	228.75	232.5	97.5	157.5	146.25
439	-487.5	-105	135	225	232.5	97.5	157.5	146.25
440	-536.25	-105	153.75	236.25	247.5	112.5	172.5	161.25
441	-536.25	-105	153.75	236.25	243.75	108.75	172.5	161.25
442	-502.5	-105	138.75	221.25	228.75	93.75	157.5	142.5
443	-487.5	-97.5	135	221.25	228.75	93.75	157.5	142.5
444	-472.5	-75	146.25	240	243.75	105	168.75	157.5
445	-461.25	-71.25	150	240	243.75	105	168.75	161.25
446	-468.75	-90	135	225	232.5	97.5	165	153.75
447	-480	-97.5	135	225	225	93.75	165	157.5
448	-487.5	-86.25	138.75	213.75	213.75	90	165	157.5
449	-483.75	-63.75	127.5	206.25	206.25	82.5	157.5	150
450	-480	-63.75	116.25	198.75	198.75	75	150	146.25
451	-483.75	-86.25	116.25	195	198.75	75	150	142.5
452	-483.75	-108.75	120	195	202.5	75	150	142.5
453	-472.5	-105	127.5	202.5	206.25	78.75	153.75	146.25
454	-476.25	-97.5	131.25	206.25	198.75	78.75	157.5	153.75
455	-468.75	-82.5	142.5	206.25	187.5	78.75	165	161.25
456	-438.75	-48.75	150	221.25	213.75	90	172.5	168.75
457	-438.75	-30	135	217.5	213.75	82.5	165	161.25
458	-472.5	-52.5	116.25	195	187.5	63.75	146.25	150
459	-468.75	-78.75	112.5	183.75	176.25	56.25	146.25	146.25
460	-457.5	-90	116.25	183.75	180	60	150	153.75
461	-442.5	-90	123.75	187.5	176.25	60	153.75	157.5
462	-453.75	-97.5	127.5	183.75	172.5	60	153.75	161.25
463	-450	-97.5	123.75	172.5	165	56.25	150	153.75
464	-450	-86.25	127.5	172.5	165	52.5	150	157.5
465	-461.25	-75	131.25	172.5	165	52.5	150	157.5
466	-461.25	-63.75	135	172.5	161.25	52.5	150	157.5
467	-461.25	-63.75	135	172.5	157.5	52.5	153.75	161.25
468	-435	-56.25	135	172.5	157.5	48.75	150	161.25
469	-416.25	-48.75	127.5	168.75	150	41.25	146.25	157.5
470	-450	-63.75	120	157.5	138.75	30	138.75	153.75
471	-472.5	-78.75	123.75	157.5	142.5	33.75	142.5	157.5
472	-457.5	-71.25	120	150	135	26.25	138.75	153.75
473	-435	-56.25	116.25	138.75	120	18.75	127.5	146.25
474	-423.75	-63.75	112.5	131.25	112.5	11.25	120	142.5
475	-427.5	-78.75	112.5	127.5	108.75	3.75	120	138.75
476	-461.25	-82.5	123.75	135	120	11.25	127.5	142.5
477	-502.5	-67.5	138.75	146.25	131.25	26.25	138.75	153.75
478	-487.5	-52.5	138.75	150	127.5	22.5	135	153.75
479	-446.25	-48.75	127.5	138.75	116.25	7.5	123.75	138.75
480	-423.75	-45	135	138.75	116.25	7.5	123.75	138.75
481	-427.5	-48.75	142.5	153.75	127.5	18.75	135	150
482	-457.5	-56.25	142.5	157.5	135	22.5	135	153.75
483	-468.75	-60	142.5	150	127.5	15	127.5	146.25
484	-438.75	-48.75	138.75	146.25	120	7.5	123.75	138.75
485	-435	-41.25	150	157.5	135	22.5	131.25	150
486	-483.75	-67.5	153.75	157.5	135	22.5	131.25	146.25
487	-491.25	-82.5	153.75	153.75	127.5	11.25	123.75	131.25
488	-468.75	-71.25	161.25	161.25	131.25	15	123.75	127.5
489	-472.5	-63.75	161.25	165	135	18.75	123.75	127.5
490	-487.5	-63.75	180	172.5	138.75	26.25	127.5	131.25
491	-483.75	-60	191.25	187.5	153.75	30	131.25	131.25
492	-495	-56.25	191.25	198.75	168.75	37.5	135	135
493	-513.75	-60	198.75	206.25	172.5	37.5	135	131.25
494	-506.25	-75	202.5	198.75	165	30	123.75	123.75
495	-513.75	-90	195	198.75	165	30	127.5	123.75
496	-528.75	-97.5	198.75	202.5	168.75	33.75	123.75	123.75
497	-528.75	-116.25	202.5	202.5	168.75	33.75	123.75	120
498	-521.25	-123.75	206.25	210	176.25	41.25	127.5	120
499	-513.75	-116.25	210	206.25	172.5	37.5	123.75	112.5
500	-528.75	-123.75	202.5	195	161.25	26.25	112.5	101.25
501	-547.5	-131.25	198.75	195	165	22.5	108.75	97.5
502	-558.75	-123.75	206.25	206.25	176.25	30	116.25	101.25
503	-570	-127.5	217.5	210	180	37.5	120	105
504	-562.5	-123.75	217.5	210	176.25	33.75	116.25	101.25
505	-566.25	-131.25	213.75	210	176.25	30	112.5	101.25
506	-592.5	-153.75	210	206.25	176.25	26.25	108.75	93.75
507	-592.5	-150	206.25	198.75	168.75	22.5	101.25	86.25
508	-585	-123.75	221.25	210	176.25	30	108.75	93.75
509	-562.5	-97.5	228.75	217.5	183.75	37.5	116.25	101.25
510	-532.5	-97.5	221.25	202.5	176.25	30	105	90
511	-555	-120	210	187.5	168.75	15	93.75	71.25
512	-596.25	-142.5	206.25	180	157.5	7.5	82.5	60
513	-600	-157.5	206.25	180	153.75	3.75	78.75	56.25
514	-596.25	-165	213.75	183.75	161.25	7.5	82.5	60
515	-600	-157.5	232.5	198.75	172.5	18.75	93.75	71.25
516	-592.5	-146.25	236.25	195	165	18.75	93.75	71.25
517	-592.5	-161.25	225	187.5	157.5	7.5	82.5	63.75
518	-618.75	-172.5	217.5	183.75	157.5	3.75	78.75	60
519	-618.75	-150	221.25	187.5	161.25	11.25	86.25	67.5
520	-581.25	-138.75	217.5	176.25	150	3.75	82.5	63.75
521	-573.75	-157.5	202.5	165	142.5	-11.25	67.5	48.75
522	-603.75	-172.5	202.5	165	146.25	-7.5	67.5	45
523	-630	-172.5	210	165	146.25	-7.5	67.5	45
524	-633.75	-161.25	206.25	157.5	138.75	-7.5	67.5	41.25
525	-633.75	-161.25	206.25	161.25	142.5	-3.75	71.25	45
526	-630	-168.75	217.5	172.5	157.5	7.5	82.5	52.5
527	-630	-172.5	221.25	176.25	161.25	11.25	86.25	60
528	-622.5	-172.5	225	183.75	161.25	15	90	63.75
529	-603.75	-165	221.25	187.5	165	11.25	86.25	63.75
530	-603.75	-168.75	213.75	176.25	157.5	3.75	78.75	56.25
531	-603.75	-165	210	172.5	157.5	7.5	78.75	56.25
532	-611.25	-165	210	176.25	157.5	7.5	82.5	60
533	-615	-165	210	168.75	153.75	7.5	82.5	60
534	-618.75	-168.75	213.75	161.25	146.25	11.25	86.25	63.75
535	-611.25	-172.5	210	165	153.75	7.5	82.5	56.25
536	-596.25	-168.75	206.25	168.75	165	7.5	82.5	52.5
537	-592.5	-161.25	210	168.75	161.25	11.25	82.5	56.25
538	-630	-153.75	221.25	172.5	165	15	90	56.25
539	-633.75	-138.75	213.75	172.5	165	11.25	82.5	52.5
540	-607.5	-138.75	213.75	176.25	165	11.25	78.75	52.5
541	-603.75	-146.25	217.5	183.75	168.75	15	82.5	56.25
542	-596.25	-153.75	210	176.25	165	7.5	78.75	52.5
543	-592.5	-157.5	198.75	168.75	157.5	0	67.5	41.25
544	-611.25	-150	198.75	172.5	157.5	0	67.5	45
545	-600	-142.5	206.25	176.25	161.25	7.5	75	52.5
546	-566.25	-146.25	206.25	172.5	157.5	3.75	75	52.5
547	-596.25	-165	198.75	168.75	157.5	3.75	75	48.75
548	-645	-168.75	206.25	165	153.75	3.75	78.75	52.5
549	-641.25	-161.25	206.25	168.75	157.5	3.75	78.75	48.75
550	-600	-157.5	206.25	168.75	157.5	0	71.25	41.25
551	-588.75	-161.25	202.5	165	153.75	0	71.25	37.5
552	-603.75	-157.5	213.75	180	168.75	11.25	82.5	52.5
553	-592.5	-161.25	210	183.75	168.75	11.25	82.5	56.25
554	-581.25	-161.25	198.75	180	165	7.5	78.75	48.75
555	-581.25	-142.5	206.25	176.25	165	11.25	82.5	56.25
556	-566.25	-146.25	210	168.75	153.75	3.75	78.75	52.5
557	-555	-153.75	202.5	168.75	157.5	3.75	75	48.75
558	-592.5	-146.25	198.75	172.5	165	7.5	78.75	52.5
559	-648.75	-153.75	213.75	176.25	165	15	86.25	56.25
560	-637.5	-165	206.25	172.5	161.25	7.5	82.5	52.5
561	-588.75	-153.75	202.5	168.75	161.25	7.5	78.75	48.75
562	-573.75	-150	202.5	165	153.75	3.75	78.75	45
563	-585	-153.75	202.5	168.75	157.5	3.75	75	45
564	-581.25	-123.75	217.5	180	168.75	15	86.25	56.25
565	-592.5	-123.75	202.5	168.75	153.75	3.75	75	48.75
566	-611.25	-157.5	187.5	153.75	142.5	-11.25	60	33.75
567	-622.5	-180	198.75	168.75	157.5	0	75	45
568	-596.25	-165	202.5	172.5	161.25	3.75	75	45
569	-566.25	-142.5	198.75	168.75	157.5	0	71.25	41.25
570	-592.5	-142.5	198.75	165	157.5	0	71.25	41.25
571	-611.25	-150	198.75	157.5	150	-3.75	71.25	41.25
572	-588.75	-146.25	191.25	146.25	146.25	-7.5	63.75	33.75
573	-581.25	-142.5	195	153.75	150	-7.5	67.5	37.5
574	-600	-161.25	198.75	165	157.5	0	78.75	45
575	-592.5	-168.75	202.5	168.75	161.25	3.75	78.75	48.75
576	-577.5	-161.25	210	168.75	165	7.5	82.5	52.5
577	-581.25	-157.5	206.25	172.5	168.75	7.5	82.5	56.25
578	-581.25	-161.25	195	168.75	161.25	3.75	78.75	48.75
579	-573.75	-161.25	183.75	153.75	146.25	-7.5	67.5	41.25
580	-551.25	-146.25	183.75	150	146.25	-11.25	67.5	37.5
581	-555	-138.75	187.5	153.75	146.25	-11.25	67.5	37.5
582	-573.75	-142.5	191.25	150	142.5	-11.25	67.5	37.5
583	-596.25	-161.25	187.5	135	131.25	-15	63.75	33.75
584	-626.25	-168.75	195	142.5	138.75	-11.25	67.5	37.5
585	-603.75	-150	198.75	153.75	153.75	0	75	41.25
586	-596.25	-138.75	206.25	165	157.5	3.75	78.75	48.75
587	-607.5	-146.25	217.5	172.5	165	11.25	86.25	52.5
588	-588.75	-135	210	172.5	165	11.25	82.5	52.5
589	-592.5	-123.75	217.5	180	165	11.25	86.25	56.25
590	-577.5	-116.25	221.25	176.25	161.25	7.5	82.5	56.25
591	-551.25	-97.5	221.25	176.25	161.25	11.25	86.25	56.25
592	-547.5	-86.25	228.75	183.75	172.5	18.75	90	60
593	-558.75	-93.75	232.5	187.5	176.25	22.5	93.75	63.75
594	-570	-105	232.5	183.75	172.5	15	90	60
595	-577.5	-116.25	232.5	176.25	161.25	7.5	82.5	52.5
596	-570	-116.25	240	180	165	15	86.25	52.5
597	-543.75	-97.5	240	187.5	172.5	15	86.25	52.5
598	-543.75	-93.75	236.25	187.5	172.5	11.25	82.5	48.75
599	-562.5	-105	243.75	195	176.25	15	90	52.5
600	-562.5	-78.75	255	213.75	195	33.75	105	67.5
601	-555	-52.5	255	213.75	198.75	33.75	108.75	71.25
602	-547.5	-60	247.5	210	187.5	30	101.25	67.5
603	-558.75	-78.75	251.25	210	191.25	33.75	108.75	75
604	-555	-71.25	258.75	213.75	198.75	41.25	116.25	82.5
605	-536.25	-45	247.5	202.5	187.5	33.75	108.75	75
606	-536.25	-45	240	195	180	30	105	75
607	-551.25	-63.75	240	198.75	191.25	37.5	116.25	82.5
608	-562.5	-60	243.75	206.25	202.5	48.75	127.5	93.75
609	-547.5	-56.25	228.75	198.75	195	41.25	120	90
610	-510	-63.75	210	183.75	180	30	108.75	78.75
611	-502.5	-71.25	198.75	180	180	30	108.75	82.5
612	-513.75	-60	198.75	187.5	191.25	41.25	120	90
613	-513.75	-45	187.5	191.25	191.25	41.25	120	93.75
614	-510	-60	172.5	176.25	176.25	30	108.75	86.25
615	-495	-67.5	161.25	165	165	18.75	101.25	78.75
616	-495	-52.5	161.25	161.25	165	18.75	101.25	78.75
617	-517.5	-67.5	165	153.75	161.25	15	101.25	78.75
618	-532.5	-90	165	150	157.5	15	97.5	78.75
619	-525	-101.25	157.5	138.75	150	7.5	93.75	71.25
620	-513.75	-105	146.25	127.5	142.5	-3.75	82.5	60
621	-510	-86.25	150	123.75	138.75	-7.5	78.75	56.25
622	-521.25	-63.75	168.75	138.75	146.25	0	86.25	60
623	-547.5	-75	180	146.25	153.75	7.5	90	67.5
624	-532.5	-93.75	191.25	153.75	153.75	7.5	93.75	71.25
625	-517.5	-123.75	195	161.25	161.25	11.25	97.5	75
626	-551.25	-150	180	146.25	146.25	-7.5	75	56.25
627	-577.5	-150	168.75	127.5	131.25	-22.5	63.75	41.25
628	-577.5	-135	180	142.5	146.25	-7.5	78.75	56.25
629	-551.25	-112.5	187.5	150	153.75	0	86.25	63.75
630	-521.25	-105	176.25	131.25	131.25	-18.75	67.5	41.25
631	-525	-120	161.25	108.75	116.25	-33.75	48.75	22.5
632	-547.5	-123.75	153.75	101.25	108.75	-45	41.25	15
633	-573.75	-123.75	161.25	101.25	108.75	-45	41.25	15
634	-611.25	-161.25	165	105	108.75	-45	41.25	11.25
635	-600	-172.5	165	108.75	108.75	-45	41.25	11.25
636	-581.25	-150	172.5	112.5	112.5	-41.25	45	15
637	-596.25	-161.25	165	108.75	105	-48.75	33.75	11.25
638	-596.25	-172.5	157.5	101.25	97.5	-56.25	26.25	3.75
639	-570	-161.25	150	97.5	93.75	-56.25	26.25	0
640	-558.75	-161.25	146.25	86.25	86.25	-63.75	18.75	-7.5
641	-585	-172.5	157.5	86.25	86.25	-60	22.5	-3.75
642	-603.75	-180	157.5	93.75	90	-56.25	30	3.75
643	-611.25	-191.25	153.75	90	90	-56.25	30	7.5
644	-622.5	-187.5	165	93.75	97.5	-48.75	37.5	11.25
645	-615	-172.5	172.5	101.25	108.75	-41.25	41.25	15
646	-592.5	-180	165	97.5	101.25	-48.75	33.75	3.75
647	-592.5	-191.25	157.5	90	90	-60	26.25	-3.75
648	-600	-187.5	157.5	97.5	93.75	-56.25	30	0
649	-592.5	-172.5	161.25	101.25	101.25	-52.5	30	3.75
650	-577.5	-161.25	153.75	93.75	90	-60	22.5	-3.75
651	-573.75	-172.5	146.25	82.5	75	-71.25	15	-11.25
652	-562.5	-172.5	153.75	90	86.25	-56.25	26.25	0
653	-566.25	-161.25	161.25	97.5	101.25	-45	41.25	15
654	-581.25	-165	150	86.25	90	-52.5	30	3.75
655	-581.25	-172.5	138.75	71.25	75	-71.25	11.25	-15
656	-585	-176.25	138.75	67.5	67.5	-75	7.5	-22.5
657	-596.25	-191.25	153.75	86.25	82.5	-63.75	18.75	-7.5
658	-615	-213.75	172.5	101.25	86.25	-67.5	15	-15
659	-615	-232.5	195	116.25	78.75	-86.25	-7.5	-37.5
660	-573.75	-240	232.5	150	78.75	-105	-37.5	-67.5
661	-566.25	-255	285	191.25	78.75	-127.5	-67.5	-97.5
662	-577.5	-273.75	330	217.5	63.75	-165	-108.75	-135
663	-577.5	-285	363.75	240	60	-183.75	-131.25	-157.5
664	-566.25	-273.75	390	285	82.5	-172.5	-123.75	-153.75
665	-540	-232.5	427.5	348.75	131.25	-138.75	-93.75	-127.5
666	-521.25	-191.25	461.25	420	191.25	-86.25	-48.75	-86.25
667	-480	-153.75	480	476.25	247.5	-37.5	-3.75	-48.75
668	-442.5	-93.75	487.5	517.5	296.25	11.25	45	-7.5
669	-420	-18.75	495	562.5	360	82.5	116.25	60
670	-360	82.5	502.5	618.75	442.5	180	213.75	161.25
671	-288.75	180	498.75	682.5	532.5	285	326.25	266.25
672	-232.5	288.75	487.5	738.75	630	401.25	442.5	378.75
673	-135	435	446.25	750	705	517.5	573.75	510
674	-52.5	581.25	386.25	746.25	795	652.5	720	656.25
675	-11.25	746.25	367.5	791.25	922.5	813.75	892.5	821.25
676	26.25	956.25	352.5	843.75	1038.75	990	1080	1012.5
677	90	1200	258.75	821.25	1132.5	1158.75	1278.75	1218.75
678	142.5	1350	120	757.5	1211.25	1297.5	1443.75	1387.5
679	150	1395	11.25	682.5	1252.5	1410	1578.75	1511.25
680	97.5	1421.25	-56.25	592.5	1293.75	1522.5	1702.5	1623.75
681	37.5	1410	-67.5	566.25	1361.25	1620	1788.75	1676.25
682	7.5	1346.25	-45	596.25	1432.5	1680	1815	1657.5
683	-52.5	1301.25	-71.25	528.75	1436.25	1687.5	1800	1620
684	-157.5	1263.75	-120	397.5	1372.5	1638.75	1743.75	1560
685	-262.5	1117.5	-131.25	281.25	1263.75	1503.75	1601.25	1417.5
686	-375	903.75	-112.5	176.25	1098.75	1282.5	1372.5	1207.5
687	-468.75	712.5	-112.5	41.25	866.25	997.5	1098.75	978.75
688	-573.75	543.75	-127.5	-108.75	596.25	693.75	821.25	753.75
689	-693.75	405	-146.25	-251.25	352.5	420	570	547.5
690	-765	277.5	-153.75	-360	165	210	371.25	375
691	-798.75	108.75	-142.5	-386.25	71.25	86.25	225	225
692	-798.75	-33.75	-127.5	-345	63.75	30	138.75	120
693	-776.25	-78.75	-127.5	-300	78.75	26.25	123.75	86.25
694	-738.75	-52.5	-112.5	-236.25	112.5	56.25	150	105
695	-690	-37.5	-105	-183.75	131.25	63.75	157.5	108.75
696	-678.75	-63.75	-97.5	-168.75	101.25	37.5	138.75	97.5
697	-663.75	-60	-86.25	-157.5	60	0	112.5	82.5
698	-641.25	-30	-67.5	-116.25	67.5	-3.75	112.5	86.25
699	-641.25	-22.5	-26.25	-48.75	112.5	30	138.75	112.5
700	-622.5	-22.5	15	11.25	150	56.25	157.5	127.5
701	-558.75	-22.5	41.25	60	180	67.5	165	127.5
702	-517.5	-41.25	63.75	97.5	198.75	71.25	157.5	116.25
703	-510	-45	93.75	123.75	206.25	71.25	150	108.75
704	-528.75	-48.75	120	138.75	210	71.25	146.25	101.25
705	-558.75	-60	138.75	153.75	217.5	75	146.25	97.5
706	-555	-63.75	150	161.25	221.25	67.5	138.75	90
707	-525	-63.75	157.5	165	213.75	60	131.25	86.25
708	-510	-71.25	165	172.5	210	56.25	127.5	82.5
709	-532.5	-90	161.25	168.75	198.75	41.25	116.25	71.25
710	-566.25	-101.25	153.75	161.25	187.5	30	105	60
711	-577.5	-116.25	150	150	176.25	18.75	90	52.5
712	-555	-116.25	146.25	146.25	165	11.25	86.25	45
713	-532.5	-101.25	138.75	138.75	157.5	3.75	78.75	41.25
714	-536.25	-112.5	138.75	131.25	150	-3.75	75	33.75
715	-540	-127.5	146.25	135	150	0	75	37.5
716	-536.25	-127.5	153.75	138.75	153.75	0	78.75	41.25
717	-528.75	-116.25	153.75	142.5	157.5	3.75	82.5	41.25
718	-543.75	-127.5	153.75	138.75	153.75	-3.75	75	37.5
719	-566.25	-146.25	165	150	157.5	0	78.75	41.25
720	-555	-138.75	165	157.5	161.25	3.75	82.5	45
721	-525	-116.25	168.75	161.25	168.75	3.75	86.25	48.75
722	-506.25	-108.75	168.75	153.75	157.5	-3.75	78.75	41.25
723	-528.75	-127.5	153.75	138.75	138.75	-11.25	71.25	37.5
724	-536.25	-138.75	146.25	135	135	-11.25	75	41.25
725	-502.5	-131.25	142.5	142.5	146.25	-11.25	71.25	37.5
726	-525	-138.75	142.5	142.5	146.25	-15	67.5	37.5
727	-570	-142.5	146.25	138.75	142.5	-11.25	75	41.25
728	-558.75	-135	138.75	135	142.5	-11.25	67.5	33.75
729	-543.75	-127.5	135	127.5	135	-22.5	60	26.25
730	-543.75	-120	146.25	146.25	150	-7.5	71.25	37.5
731	-532.5	-123.75	157.5	157.5	161.25	3.75	82.5	45
732	-528.75	-127.5	157.5	165	165	3.75	86.25	48.75
733	-502.5	-112.5	146.25	165	161.25	0	78.75	45
734	-502.5	-116.25	142.5	161.25	157.5	-3.75	78.75	45
735	-536.25	-146.25	135	153.75	150	-7.5	75	41.25
736	-536.25	-146.25	138.75	153.75	153.75	0	82.5	48.75
737	-521.25	-135	142.5	161.25	161.25	7.5	86.25	56.25
738	-513.75	-131.25	138.75	161.25	161.25	7.5	86.25	56.25
739	-521.25	-135	142.5	161.25	161.25	7.5	90	56.25
740	-521.25	-131.25	138.75	161.25	161.25	3.75	86.25	48.75
741	-513.75	-116.25	127.5	153.75	153.75	0	78.75	41.25
742	-525	-112.5	123.75	153.75	153.75	-3.75	78.75	41.25
743	-532.5	-120	135	165	161.25	3.75	86.25	52.5
744	-502.5	-101.25	142.5	176.25	168.75	11.25	93.75	60
745	-491.25	-93.75	150	187.5	180	22.5	105	71.25
746	-547.5	-135	146.25	187.5	180	22.5	105	71.25
747	-558.75	-150	138.75	172.5	168.75	15	101.25	67.5
748	-498.75	-123.75	116.25	157.5	153.75	-3.75	82.5	45
749	-468.75	-90	112.5	165	161.25	0	82.5	48.75
750	-483.75	-82.5	123.75	172.5	168.75	15	101.25	67.5
751	-502.5	-108.75	123.75	172.5	168.75	18.75	101.25	67.5
752	-510	-135	116.25	165	165	11.25	93.75	60
753	-502.5	-142.5	112.5	161.25	165	7.5	90	52.5
754	-506.25	-127.5	127.5	180	180	22.5	105	67.5
755	-502.5	-108.75	135	183.75	176.25	22.5	112.5	71.25
756	-483.75	-101.25	123.75	176.25	168.75	15	101.25	63.75
757	-472.5	-90	123.75	187.5	180	18.75	101.25	63.75
758	-487.5	-97.5	120	187.5	180	18.75	105	71.25
759	-502.5	-120	116.25	180	176.25	15	101.25	67.5
760	-495	-127.5	116.25	180	180	22.5	108.75	75
761	-487.5	-127.5	112.5	176.25	176.25	22.5	105	71.25
762	-483.75	-120	108.75	172.5	168.75	18.75	101.25	71.25
763	-491.25	-123.75	105	176.25	168.75	15	101.25	67.5
764	-476.25	-116.25	97.5	168.75	168.75	15	97.5	63.75
765	-468.75	-97.5	108.75	176.25	176.25	22.5	108.75	75
766	-476.25	-93.75	108.75	180	176.25	26.25	112.5	71.25
767	-480	-93.75	108.75	180	180	26.25	112.5	75
768	-502.5	-86.25	120	198.75	195	41.25	131.25	93.75
769	-487.5	-82.5	120	202.5	195	45	131.25	97.5
770	-457.5	-97.5	101.25	187.5	180	26.25	116.25	82.5
771	-461.25	-97.5	97.5	180	172.5	26.25	116.25	82.5
772	-472.5	-101.25	101.25	183.75	176.25	30	120	90
773	-476.25	-101.25	93.75	172.5	168.75	22.5	112.5	82.5
774	-465	-90	86.25	161.25	157.5	11.25	101.25	71.25
775	-465	-97.5	78.75	153.75	150	7.5	97.5	67.5
776	-480	-112.5	82.5	150	146.25	7.5	97.5	67.5
777	-476.25	-116.25	93.75	161.25	153.75	11.25	105	75
778	-457.5	-120	90	157.5	153.75	7.5	105	71.25
779	-465	-116.25	90	153.75	150	3.75	101.25	71.25
780	-472.5	-86.25	97.5	165	157.5	15	116.25	82.5
781	-465	-71.25	97.5	172.5	161.25	18.75	120	90
782	-468.75	-86.25	93.75	165	157.5	11.25	116.25	86.25
783	-465	-78.75	97.5	165	153.75	11.25	116.25	90
784	-431.25	-56.25	101.25	161.25	150	15	120	97.5
785	-416.25	-63.75	90	150	138.75	7.5	112.5	90
786	-453.75	-97.5	93.75	150	138.75	7.5	112.5	93.75
787	-446.25	-93.75	82.5	138.75	127.5	-3.75	105	86.25
788	-427.5	-56.25	78.75	127.5	116.25	-15	97.5	78.75
789	-476.25	-60	86.25	131.25	116.25	-11.25	101.25	82.5
790	-506.25	-82.5	97.5	135	120	-3.75	112.5	93.75
791	-453.75	-90	93.75	131.25	116.25	-7.5	105	86.25
792	-405	-82.5	90	131.25	112.5	-15	97.5	86.25
793	-408.75	-67.5	86.25	127.5	108.75	-22.5	93.75	82.5
794	-423.75	-78.75	71.25	108.75	90	-33.75	82.5	75
795	-442.5	-101.25	75	101.25	82.5	-37.5	82.5	75
796	-453.75	-90	78.75	108.75	86.25	-33.75	86.25	82.5
797	-442.5	-71.25	67.5	97.5	78.75	-41.25	78.75	75
798	-427.5	-75	56.25	86.25	67.5	-56.25	67.5	63.75
799	-438.75	-78.75	60	82.5	60	-60	67.5	63.75
800	-453.75	-67.5	63.75	78.75	63.75	-56.25	71.25	71.25
801	-465	-75	67.5	78.75	60	-60	71.25	67.5
802	-461.25	-78.75	67.5	78.75	56.25	-63.75	71.25	63.75
803	-442.5	-86.25	78.75	82.5	60	-56.25	75	71.25
804	-435	-93.75	86.25	90	63.75	-52.5	78.75	78.75
805	-427.5	-75	78.75	90	63.75	-56.25	78.75	78.75
806	-420	-56.25	78.75	90	60	-56.25	75	82.5
807	-420	-48.75	86.25	86.25	60	-56.25	78.75	82.5
808	-420	-60	75	75	48.75	-67.5	67.5	75
809	-446.25	-71.25	75	71.25	41.25	-67.5	67.5	75
810	-487.5	-67.5	86.25	86.25	56.25	-56.25	78.75	82.5
811	-498.75	-78.75	86.25	90	60	-56.25	75	82.5
812	-468.75	-97.5	78.75	75	45	-71.25	60	63.75
813	-457.5	-97.5	86.25	78.75	48.75	-67.5	63.75	63.75
814	-465	-93.75	101.25	93.75	60	-56.25	71.25	71.25
815	-468.75	-97.5	112.5	97.5	63.75	-56.25	71.25	75
816	-465	-86.25	112.5	101.25	63.75	-56.25	71.25	67.5
817	-465	-82.5	108.75	108.75	67.5	-60	67.5	63.75
818	-465	-93.75	105	112.5	67.5	-63.75	60	60
819	-480	-90	105	108.75	63.75	-63.75	56.25	52.5
820	-510	-75	120	123.75	75	-52.5	71.25	63.75
821	-525	-78.75	127.5	127.5	82.5	-48.75	71.25	63.75
822	-502.5	-90	112.5	112.5	71.25	-63.75	52.5	45
823	-498.75	-108.75	108.75	112.5	71.25	-67.5	48.75	37.5
824	-528.75	-146.25	116.25	120	78.75	-60	52.5	41.25
825	-525	-150	131.25	131.25	90	-52.5	60	45
826	-513.75	-127.5	142.5	135	93.75	-48.75	60	45
827	-532.5	-116.25	135	131.25	86.25	-56.25	52.5	33.75
828	-528.75	-105	138.75	138.75	93.75	-52.5	52.5	33.75
829	-521.25	-97.5	150	153.75	108.75	-37.5	67.5	45
830	-513.75	-97.5	153.75	165	120	-33.75	71.25	48.75
831	-510	-112.5	153.75	161.25	112.5	-37.5	63.75	41.25
832	-528.75	-138.75	146.25	150	105	-45	56.25	30
833	-558.75	-150	153.75	153.75	108.75	-37.5	60	33.75
834	-566.25	-150	157.5	146.25	101.25	-41.25	60	30
835	-551.25	-138.75	153.75	146.25	105	-45	52.5	22.5
836	-547.5	-131.25	150	142.5	108.75	-48.75	48.75	15
837	-570	-146.25	153.75	138.75	101.25	-52.5	45	11.25
838	-581.25	-168.75	150	135	97.5	-60	33.75	0
839	-581.25	-172.5	161.25	138.75	101.25	-56.25	37.5	3.75
840	-622.5	-172.5	172.5	146.25	108.75	-48.75	48.75	15
841	-637.5	-172.5	172.5	150	112.5	-45	48.75	15
842	-596.25	-161.25	157.5	138.75	101.25	-60	33.75	0
843	-588.75	-165	157.5	131.25	90	-67.5	26.25	-3.75
844	-592.5	-168.75	157.5	127.5	90	-75	22.5	-11.25
845	-585	-176.25	142.5	112.5	82.5	-82.5	11.25	-22.5
846	-588.75	-187.5	135	108.75	75	-86.25	3.75	-26.25
847	-630	-198.75	150	108.75	78.75	-82.5	11.25	-22.5
848	-660	-202.5	157.5	112.5	86.25	-78.75	15	-18.75
849	-660	-198.75	153.75	112.5	82.5	-82.5	11.25	-26.25
850	-648.75	-187.5	150	112.5	82.5	-82.5	7.5	-30
851	-615	-168.75	150	112.5	78.75	-82.5	11.25	-30
852	-603.75	-157.5	150	108.75	78.75	-82.5	7.5	-33.75
853	-630	-176.25	150	112.5	82.5	-82.5	7.5	-30
854	-652.5	-217.5	153.75	116.25	82.5	-78.75	15	-22.5
855	-652.5	-243.75	150	112.5	78.75	-82.5	11.25	-26.25
856	-641.25	-232.5	146.25	108.75	78.75	-82.5	7.5	-33.75
857	-633.75	-217.5	142.5	101.25	67.5	-86.25	3.75	-33.75
858	-630	-195	150	105	71.25	-82.5	7.5	-30
859	-641.25	-187.5	150	112.5	86.25	-78.75	7.5	-30
860	-633.75	-198.75	142.5	97.5	75	-86.25	3.75	-41.25
861	-626.25	-213.75	135	86.25	60	-97.5	-7.5	-52.5
862	-626.25	-206.25	146.25	93.75	63.75	-90	-3.75	-45
863	-633.75	-191.25	153.75	105	75	-78.75	11.25	-30
864	-660	-195	157.5	120	90	-67.5	22.5	-18.75
865	-645	-183.75	153.75	116.25	82.5	-75	15	-26.25
866	-607.5	-172.5	146.25	112.5	78.75	-82.5	11.25	-30
867	-603.75	-172.5	142.5	112.5	82.5	-82.5	7.5	-37.5
868	-592.5	-176.25	135	105	75	-90	0	-41.25
869	-592.5	-191.25	138.75	108.75	78.75	-82.5	7.5	-33.75
870	-615	-206.25	146.25	112.5	86.25	-75	18.75	-30
871	-633.75	-213.75	150	112.5	86.25	-75	15	-30
872	-656.25	-232.5	153.75	112.5	82.5	-71.25	18.75	-26.25
873	-660	-243.75	157.5	120	90	-67.5	26.25	-22.5
874	-656.25	-236.25	165	127.5	97.5	-60	26.25	-18.75
875	-652.5	-236.25	157.5	116.25	90	-71.25	18.75	-30
876	-637.5	-232.5	153.75	116.25	90	-71.25	18.75	-33.75
877	-633.75	-210	161.25	131.25	97.5	-60	26.25	-22.5
878	-660	-213.75	146.25	120	86.25	-71.25	15	-30
879	-645	-217.5	127.5	105	75	-82.5	3.75	-41.25
880	-607.5	-206.25	127.5	101.25	71.25	-86.25	0	-45
881	-615	-202.5	135	105	75	-82.5	3.75	-41.25
882	-648.75	-217.5	138.75	108.75	78.75	-78.75	11.25	-41.25
883	-645	-225	138.75	101.25	71.25	-82.5	7.5	-41.25
884	-618.75	-225	135	97.5	67.5	-82.5	7.5	-45
885	-618.75	-213.75	131.25	93.75	71.25	-82.5	7.5	-45
886	-633.75	-191.25	135	93.75	71.25	-78.75	7.5	-48.75
887	-652.5	-198.75	131.25	90	60	-86.25	0	-52.5
888	-660	-206.25	135	101.25	71.25	-82.5	7.5	-48.75
889	-652.5	-206.25	131.25	105	78.75	-82.5	7.5	-45
890	-637.5	-202.5	131.25	101.25	71.25	-86.25	3.75	-45
891	-622.5	-202.5	138.75	108.75	75	-78.75	15	-37.5
892	-600	-210	142.5	116.25	86.25	-71.25	22.5	-30
893	-607.5	-217.5	138.75	112.5	86.25	-71.25	22.5	-30
894	-660	-206.25	150	123.75	93.75	-60	33.75	-18.75
895	-660	-202.5	142.5	112.5	82.5	-71.25	18.75	-30
896	-626.25	-228.75	123.75	86.25	60	-93.75	-3.75	-56.25
897	-641.25	-255	116.25	75	45	-105	-11.25	-67.5
898	-641.25	-236.25	131.25	93.75	67.5	-90	3.75	-52.5
899	-622.5	-210	142.5	108.75	78.75	-78.75	15	-41.25
900	-611.25	-198.75	142.5	108.75	75	-78.75	11.25	-41.25
901	-618.75	-202.5	142.5	112.5	82.5	-75	15	-41.25
902	-630	-210	135	108.75	78.75	-82.5	11.25	-45
903	-626.25	-202.5	123.75	97.5	67.5	-90	3.75	-48.75
904	-615	-195	127.5	97.5	71.25	-86.25	7.5	-45
905	-637.5	-213.75	123.75	90	67.5	-90	3.75	-48.75
906	-652.5	-243.75	116.25	86.25	60	-93.75	-3.75	-56.25
907	-652.5	-255	116.25	82.5	56.25	-97.5	-3.75	-60
908	-667.5	-255	112.5	75	48.75	-105	-11.25	-67.5
909	-675	-262.5	108.75	67.5	41.25	-108.75	-15	-71.25
910	-667.5	-258.75	120	78.75	56.25	-97.5	0	-56.25
911	-633.75	-228.75	123.75	86.25	60	-90	3.75	-52.5
912	-600	-202.5	127.5	90	63.75	-86.25	7.5	-48.75
913	-596.25	-187.5	135	101.25	75	-78.75	15	-41.25
914	-626.25	-206.25	131.25	97.5	67.5	-78.75	15	-41.25
915	-622.5	-217.5	108.75	75	48.75	-97.5	0	-52.5
916	-615	-210	101.25	67.5	41.25	-105	-7.5	-63.75
917	-633.75	-206.25	97.5	63.75	37.5	-108.75	-11.25	-67.5
918	-633.75	-217.5	105	67.5	41.25	-105	-7.5	-63.75
919	-611.25	-210	120	82.5	60	-86.25	7.5	-52.5
920	-622.5	-202.5	135	86.25	60	-82.5	15	-45
921	-648.75	-206.25	142.5	90	60	-82.5	15	-45
922	-645	-195	142.5	97.5	71.25	-78.75	11.25	-48.75
923	-637.5	-195	150	101.25	75	-75	15	-45
924	-626.25	-191.25	153.75	101.25	67.5	-78.75	15	-45
925	-603.75	-172.5	157.5	116.25	82.5	-67.5	22.5	-37.5
926	-603.75	-180	146.25	105	71.25	-82.5	7.5	-48.75
927	-626.25	-198.75	146.25	101.25	63.75	-86.25	7.5	-52.5
928	-637.5	-206.25	157.5	116.25	82.5	-71.25	18.75	-41.25
929	-645	-202.5	161.25	123.75	90	-67.5	22.5	-37.5
930	-637.5	-195	165	127.5	90	-63.75	30	-33.75
931	-618.75	-202.5	161.25	120	86.25	-67.5	26.25	-37.5
932	-626.25	-217.5	161.25	112.5	75	-71.25	22.5	-41.25
933	-615	-198.75	165	108.75	71.25	-71.25	22.5	-37.5
934	-607.5	-168.75	168.75	123.75	90	-60	30	-30
935	-641.25	-165	176.25	131.25	101.25	-56.25	33.75	-30
936	-648.75	-165	187.5	131.25	97.5	-52.5	37.5	-26.25
937	-615	-142.5	183.75	135	105	-48.75	45	-15
938	-596.25	-131.25	165	123.75	93.75	-52.5	41.25	-15
939	-592.5	-142.5	153.75	112.5	86.25	-56.25	41.25	-15
940	-562.5	-131.25	150	120	97.5	-48.75	48.75	-7.5
941	-547.5	-112.5	142.5	123.75	101.25	-45	52.5	-3.75
942	-570	-127.5	131.25	112.5	93.75	-48.75	48.75	-7.5
943	-577.5	-150	105	86.25	71.25	-67.5	30	-22.5
944	-566.25	-150	93.75	78.75	63.75	-71.25	26.25	-26.25
945	-570	-157.5	97.5	82.5	67.5	-67.5	30	-26.25
946	-558.75	-135	93.75	82.5	75	-63.75	33.75	-26.25
947	-562.5	-112.5	86.25	75	60	-75	22.5	-30
948	-600	-135	90	75	56.25	-78.75	22.5	-30
949	-622.5	-161.25	93.75	78.75	60	-71.25	26.25	-22.5
950	-607.5	-176.25	82.5	63.75	48.75	-82.5	18.75	-30
951	-581.25	-176.25	67.5	52.5	41.25	-93.75	7.5	-41.25
952	-577.5	-183.75	63.75	56.25	45	-93.75	3.75	-45
953	-573.75	-183.75	75	63.75	48.75	-90	11.25	-37.5
954	-577.5	-191.25	78.75	60	45	-90	7.5	-41.25
955	-607.5	-228.75	78.75	52.5	33.75	-101.25	-3.75	-52.5
956	-630	-240	86.25	56.25	41.25	-97.5	0	-52.5
957	-637.5	-240	90	52.5	37.5	-97.5	3.75	-52.5
958	-645	-247.5	86.25	41.25	22.5	-112.5	-11.25	-67.5
959	-637.5	-243.75	82.5	37.5	15	-120	-22.5	-75
960	-615	-225	82.5	37.5	18.75	-120	-26.25	-78.75
961	-622.5	-210	90	45	15	-123.75	-26.25	-75
962	-648.75	-232.5	67.5	22.5	-3.75	-138.75	-41.25	-90
963	-637.5	-240	60	11.25	-11.25	-146.25	-48.75	-97.5
964	-645	-240	63.75	11.25	-15	-146.25	-48.75	-97.5
965	-693.75	-262.5	67.5	18.75	-3.75	-138.75	-41.25	-90
966	-693.75	-281.25	63.75	11.25	-7.5	-146.25	-48.75	-101.25
967	-675	-311.25	52.5	-7.5	-26.25	-165	-67.5	-120
968	-697.5	-337.5	56.25	-11.25	-33.75	-165	-67.5	-120
969	-693.75	-318.75	71.25	-3.75	-26.25	-153.75	-56.25	-108.75
970	-652.5	-270	75	7.5	-11.25	-146.25	-48.75	-101.25
971	-637.5	-247.5	67.5	3.75	-11.25	-153.75	-52.5	-108.75
972	-641.25	-243.75	63.75	0	-22.5	-157.5	-60	-112.5
973	-656.25	-243.75	63.75	3.75	-22.5	-157.5	-60	-112.5
974	-671.25	-266.25	60	3.75	-22.5	-157.5	-60	-112.5
975	-686.25	-285	63.75	7.5	-18.75	-150	-52.5	-101.25
976	-686.25	-285	71.25	11.25	-11.25	-142.5	-45	-93.75
977	-701.25	-307.5	63.75	11.25	-15	-146.25	-48.75	-93.75
978	-716.25	-307.5	56.25	7.5	-18.75	-150	-48.75	-101.25
979	-705	-288.75	52.5	-11.25	-33.75	-165	-63.75	-112.5
980	-671.25	-292.5	37.5	-30	-48.75	-183.75	-78.75	-131.25
981	-682.5	-315	37.5	-26.25	-45	-180	-78.75	-131.25
982	-686.25	-315	48.75	-11.25	-30	-165	-67.5	-120
983	-678.75	-311.25	60	0	-22.5	-157.5	-56.25	-112.5
984	-667.5	-303.75	60	3.75	-18.75	-157.5	-56.25	-108.75
985	-652.5	-285	60	7.5	-11.25	-150	-52.5	-105
986	-652.5	-285	60	7.5	-11.25	-150	-52.5	-101.25
987	-667.5	-296.25	48.75	-3.75	-30	-165	-63.75	-112.5
988	-678.75	-300	52.5	-3.75	-30	-165	-63.75	-116.25
989	-671.25	-300	60	0	-30	-165	-67.5	-120
990	-660	-311.25	71.25	15	-30	-172.5	-78.75	-131.25
991	-675	-341.25	105	37.5	-26.25	-187.5	-97.5	-153.75
992	-690	-375	138.75	60	-37.5	-217.5	-135	-191.25
993	-678.75	-408.75	176.25	78.75	-60	-258.75	-183.75	-243.75
994	-690	-438.75	221.25	108.75	-71.25	-288.75	-221.25	-281.25
995	-720	-442.5	258.75	150	-56.25	-292.5	-225	-288.75
996	-701.25	-408.75	296.25	210	-15	-270	-206.25	-270
997	-637.5	-356.25	337.5	288.75	48.75	-221.25	-165	-232.5
998	-592.5	-303.75	363.75	356.25	108.75	-168.75	-116.25	-191.25
999	-558.75	-243.75	378.75	416.25	168.75	-112.5	-63.75	-142.5
1000	-502.5	-180	393.75	468.75	228.75	-45	3.75	-82.5
1001	-457.5	-112.5	393.75	498.75	281.25	22.5	71.25	-15
1002	-408.75	-22.5	390	543.75	356.25	112.5	165	78.75
1003	-337.5	71.25	386.25	611.25	450	225	277.5	183.75
1004	-277.5	172.5	371.25	660	543.75	337.5	393.75	292.5
1005	-217.5	300	326.25	660	615	450	521.25	420
1006	-142.5	468.75	281.25	667.5	708.75	588.75	675	573.75
1007	-90	656.25	266.25	716.25	828.75	742.5	836.25	731.25
1008	-75	873.75	247.5	772.5	967.5	926.25	1038.75	933.75
1009	-45	1102.5	153.75	753.75	1068.75	1102.5	1245	1151.25
1010	33.75	1252.5	7.5	667.5	1106.25	1215	1387.5	1293.75
1011	71.25	1308.75	-101.25	596.25	1151.25	1323.75	1515	1413.75
1012	30	1305	-165	517.5	1200	1436.25	1638.75	1522.5
1013	-33.75	1237.5	-165	498.75	1256.25	1518.75	1702.5	1552.5
1014	-105	1158.75	-146.25	517.5	1316.25	1567.5	1721.25	1530
1015	-191.25	1121.25	-180	431.25	1305	1567.5	1698.75	1492.5
1016	-296.25	1046.25	-232.5	281.25	1218.75	1485	1612.5	1402.5
1017	-401.25	881.25	-247.5	142.5	1076.25	1312.5	1432.5	1222.5
1018	-517.5	693.75	-221.25	33.75	896.25	1080	1196.25	1012.5
1019	-622.5	525	-198.75	-78.75	675	806.25	941.25	802.5
1020	-727.5	382.5	-198.75	-202.5	435	528.75	686.25	600
1021	-836.25	255	-210	-337.5	202.5	270	453.75	408.75
1022	-881.25	93.75	-232.5	-442.5	26.25	75	255	232.5
1023	-873.75	-71.25	-240	-457.5	-48.75	-41.25	112.5	78.75
1024	-870	-180	-243.75	-435	-71.25	-97.5	30	-18.75
1025	-881.25	-206.25	-236.25	-390	-56.25	-90	26.25	-33.75
1026	-881.25	-206.25	-225	-326.25	-15	-56.25	52.5	-15
1027	-862.5	-232.5	-217.5	-288.75	-7.5	-60	52.5	-15
1028	-825	-258.75	-210	-281.25	-45	-90	33.75	-30
1029	-795	-255	-191.25	-258.75	-71.25	-112.5	18.75	-41.25
1030	-765	-213.75	-165	-217.5	-63.75	-120	15	-41.25
1031	-727.5	-168.75	-138.75	-168.75	-48.75	-112.5	18.75	-37.5
1032	-690	-150	-97.5	-101.25	0	-78.75	45	-15
1033	-663.75	-157.5	-56.25	-30	56.25	-41.25	67.5	3.75
1034	-633.75	-161.25	-26.25	11.25	78.75	-30	75	3.75
1035	-596.25	-157.5	-7.5	30	86.25	-30	67.5	-3.75
1036	-585	-168.75	3.75	37.5	82.5	-41.25	56.25	-15
1037	-603.75	-195	18.75	52.5	82.5	-48.75	48.75	-26.25
1038	-663.75	-217.5	45	71.25	97.5	-37.5	56.25	-18.75
1039	-701.25	-240	56.25	75	93.75	-45	52.5	-22.5
1040	-686.25	-266.25	37.5	45	60	-75	22.5	-52.5
1041	-652.5	-266.25	30	33.75	48.75	-90	7.5	-67.5
1042	-637.5	-243.75	41.25	45	52.5	-93.75	3.75	-67.5
1043	-645	-232.5	52.5	52.5	52.5	-90	7.5	-67.5
1044	-652.5	-240	60	56.25	52.5	-90	11.25	-63.75
1045	-652.5	-251.25	60	60	52.5	-93.75	7.5	-63.75
1046	-652.5	-262.5	48.75	48.75	37.5	-108.75	-7.5	-75
1047	-648.75	-262.5	37.5	33.75	15	-123.75	-22.5	-86.25
1048	-641.25	-266.25	33.75	30	15	-123.75	-22.5	-86.25
1049	-641.25	-277.5	37.5	41.25	30	-116.25	-15	-82.5
1050	-645	-285	41.25	41.25	26.25	-116.25	-15	-82.5
1051	-648.75	-288.75	41.25	33.75	18.75	-120	-18.75	-86.25
1052	-660	-288.75	41.25	30	15	-123.75	-22.5	-90
1053	-678.75	-285	45	33.75	18.75	-120	-15	-86.25
1054	-701.25	-285	56.25	41.25	26.25	-116.25	-11.25	-78.75
1055	-667.5	-285	41.25	30	11.25	-131.25	-26.25	-93.75
1056	-607.5	-258.75	30	26.25	7.5	-135	-30	-101.25
1057	-618.75	-243.75	37.5	37.5	15	-127.5	-22.5	-90
1058	-637.5	-262.5	41.25	41.25	18.75	-127.5	-18.75	-86.25
1059	-622.5	-281.25	30	30	7.5	-138.75	-30	-97.5
1060	-626.25	-281.25	30	30	7.5	-138.75	-26.25	-93.75
1061	-645	-273.75	37.5	37.5	15	-127.5	-18.75	-86.25
1062	-630	-247.5	48.75	52.5	26.25	-116.25	-3.75	-71.25
1063	-607.5	-255	41.25	41.25	22.5	-123.75	-11.25	-78.75
1064	-615	-288.75	33.75	30	7.5	-131.25	-22.5	-93.75
1065	-626.25	-296.25	41.25	37.5	15	-127.5	-15	-86.25
1066	-630	-273.75	52.5	56.25	33.75	-112.5	0	-75
1067	-630	-270	48.75	56.25	30	-116.25	-3.75	-75
1068	-633.75	-273.75	41.25	52.5	26.25	-120	-7.5	-78.75
1069	-626.25	-262.5	48.75	63.75	33.75	-112.5	0	-71.25
1070	-603.75	-247.5	37.5	60	30	-116.25	-3.75	-75
1071	-600	-251.25	37.5	60	30	-116.25	-3.75	-75
1072	-626.25	-262.5	45	67.5	41.25	-105	3.75	-67.5
1073	-637.5	-273.75	33.75	60	33.75	-112.5	-3.75	-71.25
1074	-607.5	-281.25	26.25	52.5	26.25	-120	-11.25	-82.5
1075	-618.75	-281.25	30	56.25	26.25	-116.25	-7.5	-78.75
1076	-637.5	-277.5	30	48.75	22.5	-116.25	-7.5	-82.5
1077	-618.75	-281.25	26.25	48.75	22.5	-116.25	-7.5	-82.5
1078	-603.75	-258.75	30	56.25	30	-112.5	-3.75	-75
1079	-611.25	-221.25	33.75	63.75	33.75	-108.75	0	-71.25
1080	-618.75	-217.5	33.75	67.5	37.5	-105	3.75	-67.5
1081	-592.5	-232.5	33.75	75	45	-101.25	11.25	-60
1082	-581.25	-258.75	33.75	78.75	48.75	-93.75	15	-56.25
1083	-577.5	-285	26.25	75	45	-97.5	11.25	-60
1084	-562.5	-258.75	22.5	75	45	-97.5	11.25	-60
1085	-566.25	-236.25	26.25	78.75	48.75	-93.75	15	-52.5
1086	-603.75	-236.25	37.5	90	63.75	-78.75	30	-41.25
1087	-637.5	-247.5	37.5	90	60	-82.5	30	-41.25
1088	-603.75	-266.25	7.5	60	33.75	-105	3.75	-67.5
1089	-566.25	-281.25	0	48.75	22.5	-116.25	-3.75	-78.75
1090	-570	-266.25	15	67.5	41.25	-97.5	15	-63.75
1091	-570	-243.75	15	71.25	45	-93.75	15	-60
1092	-555	-225	18.75	78.75	48.75	-90	22.5	-52.5
1093	-543.75	-213.75	22.5	90	60	-78.75	33.75	-41.25
1094	-555	-225	11.25	82.5	52.5	-86.25	26.25	-45
1095	-562.5	-232.5	3.75	71.25	45	-93.75	18.75	-52.5
1096	-585	-232.5	15	82.5	60	-78.75	33.75	-33.75
1097	-581.25	-247.5	11.25	82.5	56.25	-82.5	33.75	-33.75
1098	-570	-262.5	3.75	75	48.75	-90	26.25	-41.25
1099	-570	-247.5	0	67.5	45	-93.75	18.75	-48.75
1100	-573.75	-236.25	0	63.75	41.25	-93.75	22.5	-45
1101	-570	-236.25	3.75	71.25	48.75	-86.25	30	-37.5
1102	-543.75	-228.75	11.25	78.75	56.25	-78.75	37.5	-30
1103	-528.75	-225	11.25	75	48.75	-86.25	30	-37.5
1104	-536.25	-210	11.25	78.75	48.75	-86.25	33.75	-37.5
1105	-521.25	-195	11.25	82.5	52.5	-86.25	37.5	-33.75
1106	-498.75	-210	0	78.75	45	-93.75	30	-37.5
1107	-510	-228.75	-11.25	63.75	33.75	-101.25	22.5	-45
1108	-543.75	-221.25	0	71.25	45	-90	33.75	-30
1109	-558.75	-191.25	7.5	78.75	52.5	-78.75	45	-18.75
1110	-532.5	-176.25	3.75	75	45	-82.5	41.25	-22.5
1111	-521.25	-195	-11.25	56.25	26.25	-101.25	26.25	-37.5
1112	-513.75	-195	-3.75	56.25	30	-97.5	30	-30
1113	-517.5	-213.75	0	56.25	26.25	-97.5	30	-30
1114	-540	-232.5	-3.75	52.5	22.5	-105	26.25	-33.75
1115	-558.75	-240	-7.5	48.75	18.75	-108.75	22.5	-37.5
1116	-551.25	-228.75	-11.25	45	11.25	-112.5	22.5	-41.25
1117	-540	-198.75	-3.75	56.25	18.75	-105	30	-33.75
1118	-517.5	-195	-7.5	48.75	15	-108.75	30	-30
1119	-483.75	-213.75	-15	37.5	3.75	-120	18.75	-33.75
1120	-480	-225	-26.25	26.25	-7.5	-127.5	11.25	-37.5
1121	-528.75	-232.5	-22.5	22.5	-11.25	-127.5	11.25	-37.5
1122	-562.5	-225	-18.75	22.5	-11.25	-127.5	15	-33.75
1123	-543.75	-213.75	-26.25	11.25	-22.5	-138.75	7.5	-41.25
1124	-506.25	-198.75	-26.25	7.5	-22.5	-138.75	7.5	-41.25
1125	-487.5	-183.75	-22.5	3.75	-26.25	-138.75	7.5	-41.25
1126	-495	-187.5	-22.5	0	-33.75	-142.5	3.75	-45
1127	-476.25	-206.25	-18.75	3.75	-33.75	-142.5	7.5	-41.25
1128	-461.25	-206.25	-11.25	7.5	-30	-138.75	11.25	-33.75
1129	-498.75	-180	0	22.5	-22.5	-127.5	22.5	-18.75
1130	-517.5	-180	-7.5	15	-30	-138.75	11.25	-26.25
1131	-495	-198.75	-37.5	-18.75	-63.75	-168.75	-15	-52.5
1132	-498.75	-183.75	-37.5	-26.25	-67.5	-172.5	-15	-52.5
1133	-513.75	-172.5	-30	-18.75	-60	-165	-7.5	-41.25
1134	-513.75	-198.75	-37.5	-30	-71.25	-176.25	-15	-48.75
1135	-510	-232.5	-37.5	-33.75	-75	-180	-18.75	-48.75
1136	-502.5	-228.75	-26.25	-26.25	-71.25	-168.75	-3.75	-41.25
1137	-487.5	-183.75	-11.25	-18.75	-63.75	-161.25	3.75	-33.75
1138	-487.5	-176.25	-11.25	-18.75	-63.75	-161.25	0	-33.75
1139	-502.5	-198.75	-18.75	-26.25	-75	-172.5	-7.5	-45
1140	-506.25	-183.75	-18.75	-22.5	-71.25	-176.25	-7.5	-45
1141	-506.25	-172.5	-7.5	-15	-63.75	-168.75	-3.75	-37.5
1142	-513.75	-206.25	-3.75	-7.5	-60	-168.75	-3.75	-33.75
1143	-517.5	-240	-11.25	-15	-71.25	-176.25	-7.5	-41.25
1144	-521.25	-240	-15	-18.75	-78.75	-180	-15	-48.75
1145	-525	-232.5	-7.5	-11.25	-71.25	-176.25	-11.25	-45
1146	-532.5	-232.5	0	-3.75	-63.75	-172.5	-7.5	-41.25
1147	-540	-217.5	3.75	-7.5	-63.75	-172.5	-11.25	-45
1148	-536.25	-198.75	0	-11.25	-67.5	-176.25	-15	-52.5
1149	-532.5	-198.75	0	-11.25	-71.25	-180	-22.5	-63.75
1150	-532.5	-210	11.25	3.75	-60	-176.25	-22.5	-63.75
1151	-528.75	-221.25	18.75	11.25	-52.5	-172.5	-18.75	-63.75
1152	-551.25	-232.5	30	26.25	-37.5	-157.5	-7.5	-60
1153	-588.75	-225	48.75	48.75	-18.75	-146.25	3.75	-45
1154	-562.5	-210	41.25	41.25	-30	-157.5	-11.25	-60
1155	-536.25	-206.25	33.75	33.75	-37.5	-165	-18.75	-71.25
1156	-551.25	-210	33.75	37.5	-30	-161.25	-15	-67.5
1157	-555	-213.75	45	45	-22.5	-153.75	-11.25	-67.5
1158	-573.75	-225	52.5	48.75	-18.75	-150	-11.25	-67.5
1159	-581.25	-240	52.5	45	-18.75	-153.75	-15	-71.25
1160	-566.25	-251.25	37.5	30	-33.75	-165	-30	-86.25
1161	-577.5	-258.75	33.75	22.5	-41.25	-176.25	-37.5	-101.25
1162	-611.25	-270	45	30	-33.75	-172.5	-37.5	-101.25
1163	-622.5	-277.5	52.5	37.5	-26.25	-168.75	-33.75	-97.5
1164	-607.5	-262.5	60	45	-22.5	-161.25	-30	-93.75
1165	-600	-240	60	48.75	-18.75	-165	-33.75	-97.5
1166	-600	-236.25	52.5	45	-26.25	-172.5	-41.25	-105
1167	-607.5	-258.75	56.25	48.75	-22.5	-172.5	-41.25	-105
1168	-626.25	-281.25	60	52.5	-18.75	-168.75	-37.5	-105
1169	-626.25	-285	60	48.75	-18.75	-168.75	-41.25	-108.75
1170	-648.75	-292.5	52.5	33.75	-30	-180	-52.5	-116.25
1171	-652.5	-288.75	60	33.75	-26.25	-176.25	-48.75	-116.25
1172	-626.25	-281.25	60	30	-30	-176.25	-48.75	-120
1173	-641.25	-300	56.25	22.5	-33.75	-183.75	-52.5	-127.5
1174	-671.25	-292.5	71.25	37.5	-22.5	-172.5	-45	-120
1175	-671.25	-266.25	86.25	48.75	-15	-165	-41.25	-112.5
1176	-648.75	-262.5	71.25	26.25	-37.5	-187.5	-63.75	-138.75
1177	-645	-258.75	60	15	-48.75	-202.5	-75	-150
1178	-671.25	-273.75	63.75	26.25	-37.5	-195	-67.5	-138.75
1179	-682.5	-315	63.75	22.5	-37.5	-191.25	-63.75	-138.75
1180	-660	-333.75	71.25	30	-26.25	-180	-56.25	-127.5
1181	-645	-333.75	75	33.75	-26.25	-176.25	-52.5	-123.75
1182	-645	-333.75	71.25	26.25	-30	-183.75	-60	-135
1183	-652.5	-322.5	56.25	11.25	-45	-195	-71.25	-146.25
1184	-675	-311.25	56.25	3.75	-48.75	-198.75	-75	-153.75
1185	-701.25	-330	60	3.75	-48.75	-198.75	-75	-153.75
1186	-686.25	-345	67.5	11.25	-45	-195	-75	-150
1187	-663.75	-337.5	63.75	7.5	-48.75	-198.75	-75	-157.5
1188	-671.25	-322.5	60	11.25	-48.75	-198.75	-75	-157.5
1189	-678.75	-311.25	67.5	22.5	-37.5	-191.25	-67.5	-150
1190	-671.25	-300	63.75	18.75	-37.5	-191.25	-71.25	-150
1191	-667.5	-300	56.25	11.25	-45	-195	-75	-153.75
1192	-660	-307.5	48.75	7.5	-52.5	-202.5	-78.75	-157.5
1193	-663.75	-296.25	52.5	7.5	-52.5	-202.5	-78.75	-157.5
1194	-697.5	-300	52.5	7.5	-52.5	-202.5	-78.75	-157.5
1195	-712.5	-318.75	45	0	-56.25	-206.25	-82.5	-161.25
1196	-701.25	-326.25	45	0	-52.5	-202.5	-78.75	-161.25
1197	-686.25	-341.25	56.25	3.75	-48.75	-198.75	-75	-161.25
1198	-682.5	-352.5	60	7.5	-45	-198.75	-75	-161.25
1199	-693.75	-341.25	56.25	7.5	-48.75	-202.5	-78.75	-168.75
1200	-697.5	-326.25	56.25	7.5	-45	-198.75	-78.75	-165
1201	-686.25	-326.25	60	15	-37.5	-195	-75	-161.25
1202	-678.75	-333.75	60	18.75	-33.75	-191.25	-71.25	-153.75
1203	-686.25	-341.25	48.75	3.75	-48.75	-206.25	-82.5	-168.75
1204	-693.75	-330	52.5	7.5	-45	-198.75	-78.75	-161.25
1205	-671.25	-303.75	67.5	22.5	-26.25	-183.75	-63.75	-146.25
1206	-652.5	-307.5	60	15	-37.5	-191.25	-75	-153.75
1207	-682.5	-333.75	37.5	-7.5	-60	-213.75	-93.75	-176.25
1208	-697.5	-348.75	45	-7.5	-56.25	-210	-93.75	-176.25
1209	-697.5	-360	56.25	3.75	-45	-198.75	-78.75	-165
1210	-697.5	-341.25	67.5	15	-30	-187.5	-63.75	-153.75
1211	-693.75	-333.75	63.75	15	-33.75	-191.25	-71.25	-161.25
1212	-693.75	-348.75	52.5	3.75	-48.75	-206.25	-86.25	-176.25
1213	-701.25	-326.25	48.75	3.75	-48.75	-210	-90	-172.5
1214	-686.25	-300	37.5	-3.75	-56.25	-213.75	-93.75	-176.25
1215	-671.25	-315	26.25	-15	-67.5	-225	-101.25	-183.75
1216	-656.25	-322.5	33.75	-11.25	-60	-217.5	-93.75	-176.25
1217	-648.75	-303.75	45	-7.5	-56.25	-210	-90	-168.75
1218	-656.25	-303.75	48.75	3.75	-45	-198.75	-82.5	-161.25
1219	-667.5	-333.75	48.75	7.5	-37.5	-195	-75	-157.5
1220	-675	-348.75	52.5	3.75	-41.25	-195	-75	-161.25
1221	-682.5	-341.25	56.25	3.75	-41.25	-195	-75	-161.25
1222	-675	-330	52.5	3.75	-45	-198.75	-78.75	-165
1223	-660	-322.5	45	-3.75	-52.5	-206.25	-86.25	-172.5
1224	-656.25	-307.5	48.75	-3.75	-52.5	-210	-90	-172.5
1225	-637.5	-307.5	48.75	3.75	-48.75	-206.25	-86.25	-168.75
1226	-645	-330	56.25	15	-37.5	-195	-75	-157.5
1227	-678.75	-341.25	56.25	7.5	-45	-198.75	-78.75	-157.5
1228	-667.5	-337.5	41.25	-7.5	-60	-213.75	-90	-172.5
1229	-656.25	-337.5	37.5	-7.5	-56.25	-210	-90	-172.5
1230	-690	-337.5	45	-3.75	-48.75	-206.25	-86.25	-165
1231	-697.5	-341.25	41.25	-15	-60	-213.75	-93.75	-172.5
1232	-663.75	-341.25	30	-22.5	-67.5	-221.25	-101.25	-183.75
1233	-648.75	-337.5	30	-26.25	-71.25	-225	-105	-187.5
1234	-663.75	-333.75	41.25	-18.75	-63.75	-217.5	-93.75	-180
1235	-686.25	-322.5	48.75	-11.25	-56.25	-210	-90	-172.5
1236	-697.5	-322.5	37.5	-22.5	-63.75	-221.25	-101.25	-187.5
1237	-693.75	-315	26.25	-26.25	-71.25	-228.75	-105	-191.25
1238	-678.75	-322.5	33.75	-15	-60	-217.5	-93.75	-176.25
1239	-648.75	-345	45	-7.5	-52.5	-210	-86.25	-168.75
1240	-652.5	-352.5	45	-7.5	-52.5	-206.25	-82.5	-168.75
1241	-667.5	-360	37.5	-15	-60	-213.75	-90	-176.25
1242	-671.25	-363.75	26.25	-30	-71.25	-225	-101.25	-183.75
1243	-690	-367.5	22.5	-37.5	-78.75	-232.5	-105	-191.25
1244	-708.75	-360	30	-30	-71.25	-225	-97.5	-183.75
1245	-693.75	-341.25	37.5	-22.5	-63.75	-213.75	-90	-176.25
1246	-648.75	-315	33.75	-33.75	-71.25	-225	-97.5	-187.5
1247	-633.75	-281.25	18.75	-48.75	-90	-240	-116.25	-202.5
1248	-648.75	-273.75	15	-48.75	-90	-243.75	-116.25	-206.25
1249	-660	-288.75	33.75	-26.25	-71.25	-225	-97.5	-187.5
1250	-667.5	-292.5	56.25	0	-48.75	-202.5	-75	-165
1251	-671.25	-307.5	60	0	-45	-202.5	-75	-161.25
1252	-656.25	-318.75	52.5	-11.25	-56.25	-210	-82.5	-172.5
1253	-648.75	-322.5	60	-3.75	-48.75	-202.5	-78.75	-168.75
1254	-652.5	-326.25	63.75	0	-45	-198.75	-75	-165
1255	-671.25	-326.25	63.75	-7.5	-52.5	-202.5	-78.75	-168.75
1256	-682.5	-326.25	63.75	-11.25	-56.25	-206.25	-78.75	-172.5
1257	-652.5	-311.25	60	-15	-60	-213.75	-86.25	-180
1258	-618.75	-281.25	75	-3.75	-48.75	-202.5	-75	-172.5
1259	-630	-285	78.75	3.75	-45	-198.75	-75	-172.5
1260	-641.25	-300	75	3.75	-48.75	-206.25	-82.5	-176.25
1261	-645	-288.75	82.5	15	-37.5	-198.75	-75	-168.75
1262	-630	-270	86.25	22.5	-33.75	-195	-71.25	-161.25
1263	-615	-270	78.75	15	-41.25	-202.5	-78.75	-168.75
1264	-645	-277.5	82.5	18.75	-33.75	-195	-67.5	-157.5
1265	-663.75	-273.75	93.75	30	-26.25	-183.75	-56.25	-146.25
1266	-633.75	-262.5	93.75	30	-22.5	-180	-52.5	-142.5
1267	-633.75	-266.25	93.75	26.25	-26.25	-183.75	-56.25	-146.25
1268	-648.75	-262.5	78.75	7.5	-41.25	-195	-71.25	-161.25
1269	-652.5	-240	60	-11.25	-56.25	-210	-82.5	-172.5
1270	-641.25	-240	60	-7.5	-52.5	-202.5	-75	-165
1271	-626.25	-258.75	63.75	0	-41.25	-191.25	-60	-157.5
1272	-603.75	-243.75	56.25	3.75	-37.5	-187.5	-60	-150
1273	-573.75	-217.5	48.75	7.5	-30	-183.75	-52.5	-142.5
1274	-562.5	-217.5	37.5	11.25	-26.25	-180	-45	-131.25
1275	-562.5	-243.75	30	3.75	-26.25	-180	-45	-131.25
1276	-585	-281.25	26.25	3.75	-26.25	-180	-45	-127.5
1277	-603.75	-296.25	15	-3.75	-33.75	-183.75	-48.75	-131.25
1278	-585	-273.75	0	-15	-48.75	-195	-60	-142.5
1279	-577.5	-251.25	-11.25	-37.5	-67.5	-213.75	-78.75	-157.5
1280	-585	-251.25	-7.5	-41.25	-67.5	-213.75	-75	-157.5
1281	-570	-262.5	0	-41.25	-63.75	-206.25	-71.25	-153.75
1282	-577.5	-266.25	-7.5	-48.75	-71.25	-213.75	-78.75	-157.5
1283	-592.5	-281.25	-11.25	-52.5	-78.75	-221.25	-82.5	-165
1284	-592.5	-300	7.5	-37.5	-63.75	-210	-71.25	-153.75
1285	-607.5	-292.5	15	-30	-63.75	-210	-75	-153.75
1286	-603.75	-288.75	7.5	-41.25	-75	-225	-86.25	-165
1287	-592.5	-303.75	7.5	-45	-78.75	-225	-90	-168.75
1288	-603.75	-315	11.25	-45	-82.5	-228.75	-93.75	-168.75
1289	-615	-315	11.25	-48.75	-90	-236.25	-101.25	-180
1290	-622.5	-307.5	3.75	-60	-101.25	-247.5	-112.5	-191.25
1291	-645	-318.75	0	-71.25	-108.75	-251.25	-116.25	-198.75
1292	-648.75	-333.75	0	-71.25	-105	-251.25	-116.25	-195
1293	-652.5	-333.75	3.75	-71.25	-105	-247.5	-112.5	-195
1294	-671.25	-348.75	0	-82.5	-120	-258.75	-120	-206.25
1295	-645	-356.25	0	-86.25	-127.5	-266.25	-131.25	-213.75
1296	-600	-333.75	15	-63.75	-101.25	-247.5	-108.75	-195
1297	-596.25	-326.25	26.25	-48.75	-90	-236.25	-97.5	-183.75
1298	-633.75	-348.75	15	-60	-105	-255	-112.5	-195
1299	-641.25	-352.5	3.75	-78.75	-123.75	-270	-131.25	-210
1300	-637.5	-345	-3.75	-86.25	-131.25	-273.75	-135	-213.75
1301	-648.75	-360	-11.25	-97.5	-138.75	-281.25	-142.5	-217.5
1302	-648.75	-378.75	-18.75	-101.25	-142.5	-288.75	-150	-225
1303	-645	-375	-26.25	-108.75	-150	-300	-157.5	-232.5
1304	-667.5	-375	-22.5	-108.75	-150	-296.25	-153.75	-236.25
1305	-720	-378.75	-3.75	-90	-135	-273.75	-135	-217.5
1306	-723.75	-382.5	15	-75	-116.25	-258.75	-120	-202.5
1307	-671.25	-382.5	0	-90	-131.25	-277.5	-135	-217.5
1308	-660	-378.75	-18.75	-105	-150	-292.5	-153.75	-236.25
1309	-656.25	-356.25	-15	-97.5	-146.25	-292.5	-150	-228.75
1310	-630	-330	-7.5	-86.25	-131.25	-281.25	-138.75	-217.5
1311	-633.75	-337.5	-18.75	-97.5	-142.5	-292.5	-150	-225
1312	-645	-352.5	-18.75	-101.25	-146.25	-292.5	-150	-225
1313	-652.5	-360	-15	-90	-138.75	-281.25	-138.75	-217.5
1314	-663.75	-363.75	-7.5	-86.25	-127.5	-273.75	-131.25	-206.25
1315	-663.75	-371.25	-15	-97.5	-142.5	-288.75	-146.25	-221.25
1316	-652.5	-378.75	-26.25	-112.5	-153.75	-300	-153.75	-228.75
1317	-652.5	-375	-18.75	-105	-146.25	-292.5	-146.25	-221.25
1318	-648.75	-367.5	-7.5	-97.5	-138.75	-281.25	-138.75	-217.5
1319	-648.75	-371.25	-11.25	-101.25	-146.25	-288.75	-146.25	-228.75
1320	-648.75	-371.25	-18.75	-105	-153.75	-300	-161.25	-240
1321	-626.25	-363.75	-11.25	-97.5	-157.5	-311.25	-172.5	-251.25
1322	-603.75	-360	18.75	-67.5	-150	-318.75	-183.75	-262.5
1323	-615	-393.75	48.75	-45	-161.25	-345	-213.75	-292.5
1324	-630	-446.25	93.75	-15	-168.75	-375	-251.25	-333.75
1325	-630	-491.25	138.75	11.25	-180	-405	-288.75	-371.25
1326	-626.25	-502.5	183.75	52.5	-172.5	-412.5	-303.75	-386.25
1327	-630	-487.5	225	108.75	-138.75	-393.75	-288.75	-371.25
1328	-603.75	-438.75	258.75	168.75	-93.75	-367.5	-270	-356.25
1329	-551.25	-363.75	288.75	232.5	-41.25	-322.5	-232.5	-326.25
1330	-525	-318.75	326.25	315	41.25	-247.5	-161.25	-262.5
1331	-495	-281.25	367.5	401.25	131.25	-157.5	-78.75	-187.5
1332	-461.25	-206.25	378.75	446.25	195	-90	-7.5	-120
1333	-397.5	-101.25	363.75	491.25	255	-15	75	-41.25
1334	-311.25	3.75	345	543.75	337.5	82.5	168.75	52.5
1335	-228.75	120	326.25	588.75	423.75	187.5	277.5	153.75
1336	-172.5	243.75	296.25	600	506.25	303.75	405	281.25
1337	-150	378.75	247.5	600	592.5	442.5	562.5	438.75
1338	-127.5	555	232.5	648.75	723.75	607.5	738.75	607.5
1339	-71.25	753.75	206.25	690	840	768.75	911.25	776.25
1340	0	948.75	105	652.5	918.75	922.5	1095	967.5
1341	41.25	1121.25	-22.5	581.25	982.5	1072.5	1275	1155
1342	60	1233.75	-131.25	510	1038.75	1203.75	1425	1297.5
1343	41.25	1290	-217.5	393.75	1068.75	1305	1545	1410
1344	3.75	1293.75	-240	337.5	1117.5	1402.5	1635	1473.75
1345	-56.25	1230	-210	375	1200	1477.5	1680	1473.75
1346	-138.75	1158.75	-225	326.25	1215	1496.25	1672.5	1440
1347	-217.5	1091.25	-288.75	183.75	1147.5	1443.75	1612.5	1372.5
1348	-300	948.75	-315	48.75	1027.5	1308.75	1466.25	1230
1349	-427.5	746.25	-292.5	-56.25	862.5	1087.5	1233.75	1012.5
1350	-551.25	547.5	-273.75	-161.25	656.25	817.5	975	791.25
1351	-652.5	363.75	-285	-300	390	510	693.75	566.25
1352	-750	225	-300	-453.75	120	210	423.75	345
1353	-817.5	90	-322.5	-577.5	-93.75	-22.5	206.25	157.5
1354	-836.25	-60	-318.75	-600	-183.75	-153.75	56.25	3.75
1355	-847.5	-187.5	-292.5	-551.25	-187.5	-202.5	-22.5	-93.75
1356	-843.75	-232.5	-281.25	-495	-161.25	-198.75	-37.5	-123.75
1357	-783.75	-195	-266.25	-416.25	-112.5	-157.5	-3.75	-97.5
1358	-723.75	-187.5	-262.5	-371.25	-101.25	-153.75	-3.75	-101.25
1359	-723.75	-232.5	-270	-367.5	-142.5	-195	-41.25	-135
1360	-738.75	-262.5	-251.25	-348.75	-172.5	-225	-60	-142.5
1361	-716.25	-273.75	-225	-303.75	-168.75	-225	-60	-138.75
1362	-686.25	-247.5	-195	-251.25	-142.5	-217.5	-52.5	-135
1363	-656.25	-213.75	-172.5	-202.5	-116.25	-202.5	-45	-127.5
1364	-607.5	-210	-150	-157.5	-86.25	-187.5	-41.25	-131.25
1365	-588.75	-202.5	-101.25	-97.5	-48.75	-165	-26.25	-120
1366	-641.25	-176.25	-41.25	-33.75	0	-127.5	3.75	-97.5
1367	-630	-165	-22.5	-18.75	0	-135	-7.5	-112.5
1368	-570	-202.5	-30	-37.5	-30	-168.75	-41.25	-142.5
1369	-547.5	-236.25	-7.5	-7.5	-11.25	-157.5	-33.75	-135
1370	-551.25	-240	7.5	11.25	0	-153.75	-30	-131.25
1371	-555	-251.25	0	-3.75	-18.75	-172.5	-48.75	-146.25
1372	-562.5	-281.25	-3.75	-7.5	-30	-183.75	-60	-153.75
1373	-581.25	-288.75	0	-11.25	-33.75	-191.25	-63.75	-161.25
1374	-630	-288.75	7.5	-3.75	-33.75	-187.5	-63.75	-161.25
1375	-660	-300	15	0	-33.75	-187.5	-60	-157.5
1376	-615	-311.25	3.75	-15	-48.75	-206.25	-78.75	-176.25
1377	-581.25	-315	-3.75	-30	-63.75	-221.25	-93.75	-191.25
1378	-603.75	-318.75	3.75	-22.5	-63.75	-217.5	-90	-187.5
1379	-603.75	-307.5	7.5	-18.75	-60	-217.5	-90	-187.5
1380	-592.5	-296.25	7.5	-18.75	-63.75	-221.25	-93.75	-191.25
1381	-588.75	-285	11.25	-11.25	-60	-221.25	-90	-187.5
1382	-581.25	-270	11.25	-3.75	-56.25	-217.5	-90	-183.75
1383	-555	-266.25	3.75	-11.25	-63.75	-225	-93.75	-187.5
1384	-536.25	-273.75	-3.75	-18.75	-71.25	-228.75	-101.25	-191.25
1385	-547.5	-273.75	-3.75	-15	-71.25	-228.75	-97.5	-191.25
1386	-558.75	-273.75	-3.75	-15	-67.5	-228.75	-97.5	-187.5
1387	-570	-288.75	3.75	-7.5	-63.75	-221.25	-90	-183.75
1388	-585	-303.75	11.25	-3.75	-60	-217.5	-86.25	-180
1389	-585	-303.75	15	0	-60	-213.75	-82.5	-180
1390	-566.25	-277.5	11.25	0	-60	-217.5	-86.25	-183.75
1391	-562.5	-266.25	7.5	0	-60	-217.5	-86.25	-183.75
1392	-562.5	-273.75	7.5	7.5	-60	-217.5	-82.5	-176.25
1393	-551.25	-258.75	15	15	-52.5	-210	-78.75	-172.5
1394	-536.25	-240	11.25	18.75	-48.75	-210	-75	-172.5
1395	-543.75	-258.75	7.5	15	-56.25	-213.75	-82.5	-176.25
1396	-521.25	-266.25	7.5	15	-52.5	-210	-78.75	-172.5
1397	-517.5	-270	7.5	18.75	-48.75	-210	-75	-168.75
1398	-532.5	-262.5	15	26.25	-41.25	-202.5	-67.5	-161.25
1399	-525	-251.25	15	30	-41.25	-198.75	-63.75	-157.5
1400	-532.5	-262.5	-3.75	15	-52.5	-210	-75	-176.25
1401	-536.25	-281.25	-11.25	3.75	-63.75	-221.25	-86.25	-187.5
1402	-536.25	-288.75	-3.75	3.75	-63.75	-217.5	-82.5	-187.5
1403	-547.5	-277.5	7.5	18.75	-52.5	-206.25	-71.25	-176.25
1404	-551.25	-266.25	0	15	-56.25	-213.75	-78.75	-180
1405	-536.25	-240	7.5	33.75	-37.5	-198.75	-63.75	-168.75
1406	-513.75	-221.25	7.5	45	-30	-191.25	-52.5	-157.5
1407	-495	-232.5	-11.25	26.25	-45	-206.25	-71.25	-172.5
1408	-498.75	-251.25	-11.25	22.5	-48.75	-206.25	-71.25	-172.5
1409	-536.25	-270	7.5	45	-26.25	-187.5	-48.75	-150
1410	-570	-266.25	30	67.5	-3.75	-165	-26.25	-127.5
1411	-536.25	-258.75	15	60	-15	-172.5	-37.5	-138.75
1412	-465	-236.25	-3.75	37.5	-33.75	-191.25	-56.25	-157.5
1413	-461.25	-225	-7.5	33.75	-37.5	-195	-63.75	-165
1414	-491.25	-247.5	7.5	48.75	-22.5	-180	-45	-146.25
1415	-513.75	-243.75	18.75	63.75	-7.5	-168.75	-33.75	-135
1416	-532.5	-202.5	22.5	71.25	-3.75	-165	-30	-135
1417	-502.5	-183.75	7.5	63.75	-11.25	-176.25	-41.25	-142.5
1418	-476.25	-198.75	0	60	-15	-180	-45	-146.25
1419	-498.75	-217.5	0	63.75	-15	-176.25	-41.25	-142.5
1420	-495	-213.75	3.75	71.25	-7.5	-165	-30	-131.25
1421	-465	-213.75	7.5	75	0	-161.25	-22.5	-123.75
1422	-480	-221.25	3.75	75	0	-161.25	-26.25	-123.75
1423	-498.75	-225	-11.25	60	-15	-176.25	-37.5	-138.75
1424	-468.75	-228.75	-18.75	45	-26.25	-183.75	-48.75	-146.25
1425	-457.5	-240	-11.25	52.5	-18.75	-180	-37.5	-142.5
1426	-465	-247.5	0	67.5	-7.5	-168.75	-30	-135
1427	-465	-213.75	3.75	75	-3.75	-161.25	-22.5	-131.25
1428	-435	-168.75	3.75	78.75	0	-157.5	-18.75	-127.5
1429	-423.75	-172.5	0	78.75	0	-161.25	-18.75	-123.75
1430	-427.5	-180	0	82.5	0	-157.5	-18.75	-120
1431	-427.5	-183.75	-7.5	78.75	-3.75	-165	-18.75	-120
1432	-435	-198.75	-7.5	75	-7.5	-165	-18.75	-120
1433	-446.25	-202.5	-7.5	75	-7.5	-161.25	-18.75	-120
1434	-450	-191.25	-7.5	75	-7.5	-161.25	-18.75	-120
1435	-446.25	-187.5	-18.75	63.75	-15	-172.5	-30	-131.25
1436	-450	-195	-26.25	52.5	-26.25	-180	-37.5	-138.75
1437	-457.5	-191.25	-18.75	56.25	-26.25	-176.25	-33.75	-135
1438	-453.75	-183.75	-11.25	63.75	-18.75	-168.75	-26.25	-127.5
1439	-450	-195	-11.25	67.5	-18.75	-172.5	-22.5	-127.5
1440	-450	-210	-7.5	67.5	-15	-165	-18.75	-120
1441	-446.25	-206.25	0	82.5	-3.75	-157.5	-3.75	-105
1442	-427.5	-187.5	-15	75	-15	-168.75	-11.25	-112.5
1443	-405	-176.25	-22.5	60	-26.25	-176.25	-18.75	-116.25
1444	-408.75	-183.75	-26.25	52.5	-33.75	-183.75	-22.5	-120
1445	-408.75	-180	-26.25	52.5	-33.75	-183.75	-26.25	-116.25
1446	-401.25	-168.75	-33.75	45	-45	-191.25	-33.75	-120
1447	-378.75	-153.75	-37.5	37.5	-52.5	-198.75	-41.25	-127.5
1448	-397.5	-180	-45	30	-63.75	-206.25	-45	-135
1449	-457.5	-236.25	-41.25	26.25	-63.75	-206.25	-41.25	-131.25
1450	-461.25	-243.75	-26.25	33.75	-56.25	-198.75	-33.75	-123.75
1451	-435	-213.75	-22.5	37.5	-60	-198.75	-33.75	-123.75
1452	-401.25	-180	-26.25	33.75	-63.75	-202.5	-33.75	-123.75
1453	-375	-150	-26.25	37.5	-63.75	-206.25	-33.75	-120
1454	-371.25	-142.5	-30	37.5	-67.5	-210	-37.5	-120
1455	-390	-168.75	-37.5	30	-75	-213.75	-37.5	-120
1456	-408.75	-187.5	-26.25	33.75	-67.5	-206.25	-30	-108.75
1457	-401.25	-176.25	-26.25	30	-75	-210	-33.75	-112.5
1458	-382.5	-165	-41.25	11.25	-90	-225	-48.75	-123.75
1459	-390	-157.5	-41.25	11.25	-97.5	-228.75	-48.75	-123.75
1460	-416.25	-161.25	-37.5	7.5	-101.25	-228.75	-52.5	-127.5
1461	-427.5	-180	-37.5	0	-105	-236.25	-52.5	-127.5
1462	-416.25	-183.75	-33.75	3.75	-105	-232.5	-48.75	-123.75
1463	-408.75	-183.75	-26.25	7.5	-105	-228.75	-45	-120
1464	-431.25	-195	-26.25	3.75	-108.75	-236.25	-48.75	-123.75
1465	-435	-191.25	-30	0	-112.5	-243.75	-56.25	-127.5
1466	-416.25	-176.25	-30	3.75	-116.25	-243.75	-56.25	-123.75
1467	-435	-187.5	-26.25	3.75	-116.25	-243.75	-52.5	-120
1468	-427.5	-183.75	-33.75	-3.75	-120	-247.5	-56.25	-123.75
1469	-382.5	-157.5	-37.5	-7.5	-127.5	-255	-60	-127.5
1470	-352.5	-146.25	-41.25	-15	-138.75	-262.5	-71.25	-138.75
1471	-356.25	-153.75	-41.25	-18.75	-138.75	-266.25	-75	-138.75
1472	-371.25	-165	-37.5	-18.75	-142.5	-262.5	-71.25	-135
1473	-382.5	-168.75	-30	-18.75	-142.5	-262.5	-67.5	-135
1474	-397.5	-168.75	-30	-18.75	-142.5	-266.25	-71.25	-138.75
1475	-408.75	-172.5	-22.5	-15	-138.75	-262.5	-63.75	-135
1476	-405	-161.25	-18.75	-7.5	-135	-262.5	-67.5	-138.75
1477	-393.75	-120	-26.25	-11.25	-138.75	-270	-78.75	-150
1478	-393.75	-112.5	-22.5	0	-135	-270	-75	-146.25
1479	-416.25	-150	-11.25	7.5	-123.75	-258.75	-67.5	-138.75
1480	-431.25	-172.5	-7.5	7.5	-123.75	-262.5	-71.25	-142.5
1481	-431.25	-176.25	-3.75	15	-120	-255	-67.5	-146.25
1482	-416.25	-176.25	3.75	22.5	-112.5	-251.25	-67.5	-142.5
1483	-408.75	-187.5	7.5	22.5	-112.5	-255	-71.25	-150
1484	-435	-217.5	15	26.25	-108.75	-255	-71.25	-153.75
1485	-468.75	-240	22.5	33.75	-101.25	-251.25	-67.5	-153.75
1486	-446.25	-210	22.5	33.75	-101.25	-247.5	-71.25	-161.25
1487	-453.75	-172.5	37.5	48.75	-86.25	-240	-63.75	-153.75
1488	-472.5	-157.5	41.25	52.5	-82.5	-236.25	-63.75	-153.75
1489	-453.75	-165	30	45	-93.75	-247.5	-75	-165
1490	-461.25	-202.5	33.75	52.5	-86.25	-247.5	-75	-165
1491	-476.25	-225	33.75	52.5	-86.25	-251.25	-78.75	-172.5
1492	-487.5	-217.5	33.75	48.75	-86.25	-251.25	-86.25	-180
1493	-472.5	-195	41.25	56.25	-78.75	-240	-78.75	-172.5
1494	-457.5	-198.75	48.75	67.5	-67.5	-232.5	-71.25	-168.75
1495	-480	-232.5	52.5	67.5	-71.25	-232.5	-75	-172.5
1496	-483.75	-251.25	48.75	60	-71.25	-236.25	-78.75	-176.25
1497	-495	-251.25	52.5	60	-71.25	-236.25	-75	-176.25
1498	-513.75	-232.5	52.5	56.25	-75	-240	-82.5	-183.75
1499	-498.75	-221.25	48.75	48.75	-78.75	-243.75	-86.25	-191.25
1500	-480	-232.5	48.75	52.5	-78.75	-247.5	-86.25	-195
1501	-472.5	-225	60	67.5	-67.5	-236.25	-82.5	-191.25
1502	-480	-217.5	63.75	71.25	-67.5	-240	-82.5	-191.25
1503	-495	-243.75	48.75	52.5	-82.5	-255	-97.5	-206.25
1504	-498.75	-255	45	48.75	-86.25	-258.75	-101.25	-210
1505	-498.75	-243.75	41.25	45	-90	-258.75	-105	-213.75
1506	-517.5	-240	37.5	37.5	-93.75	-266.25	-108.75	-217.5
1507	-543.75	-240	37.5	33.75	-93.75	-270	-112.5	-221.25
1508	-540	-236.25	45	33.75	-93.75	-266.25	-112.5	-225
1509	-528.75	-247.5	41.25	26.25	-101.25	-273.75	-116.25	-228.75
1510	-521.25	-258.75	41.25	26.25	-97.5	-270	-116.25	-225
1511	-521.25	-277.5	48.75	33.75	-93.75	-270	-112.5	-225
1512	-540	-292.5	48.75	33.75	-93.75	-270	-116.25	-225
1513	-547.5	-277.5	56.25	41.25	-86.25	-262.5	-108.75	-221.25
1514	-540	-251.25	48.75	37.5	-90	-270	-112.5	-221.25
1515	-562.5	-247.5	45	33.75	-93.75	-270	-116.25	-225
1516	-596.25	-251.25	48.75	41.25	-86.25	-266.25	-112.5	-217.5
1517	-547.5	-262.5	33.75	26.25	-101.25	-277.5	-123.75	-228.75
1518	-495	-273.75	15	7.5	-120	-296.25	-138.75	-251.25
1519	-521.25	-281.25	22.5	15	-112.5	-285	-131.25	-243.75
1520	-562.5	-300	37.5	22.5	-101.25	-273.75	-120	-232.5
1521	-573.75	-303.75	41.25	18.75	-101.25	-273.75	-123.75	-236.25
1522	-547.5	-277.5	41.25	22.5	-101.25	-273.75	-120	-236.25
1523	-528.75	-266.25	48.75	30	-90	-266.25	-112.5	-228.75
1524	-532.5	-262.5	52.5	33.75	-90	-262.5	-112.5	-225
1525	-517.5	-240	48.75	33.75	-93.75	-266.25	-116.25	-228.75
1526	-513.75	-240	41.25	26.25	-97.5	-277.5	-123.75	-236.25
1527	-536.25	-270	37.5	26.25	-101.25	-277.5	-123.75	-236.25
1528	-525	-273.75	37.5	26.25	-97.5	-277.5	-123.75	-236.25
1529	-517.5	-266.25	37.5	22.5	-101.25	-277.5	-127.5	-240
1530	-532.5	-258.75	33.75	22.5	-105	-281.25	-127.5	-240
1531	-536.25	-247.5	26.25	15	-108.75	-285	-131.25	-243.75
1532	-536.25	-240	15	7.5	-116.25	-292.5	-138.75	-251.25
1533	-540	-247.5	11.25	0	-120	-296.25	-142.5	-258.75
1534	-532.5	-273.75	26.25	11.25	-108.75	-281.25	-131.25	-243.75
1535	-517.5	-307.5	52.5	41.25	-82.5	-255	-105	-221.25
1536	-513.75	-300	60	48.75	-71.25	-247.5	-97.5	-213.75
1537	-498.75	-258.75	48.75	45	-82.5	-258.75	-105	-225
1538	-502.5	-258.75	41.25	37.5	-90	-266.25	-112.5	-228.75
1539	-543.75	-281.25	52.5	48.75	-75	-255	-101.25	-217.5
1540	-573.75	-288.75	60	56.25	-71.25	-247.5	-93.75	-210
1541	-551.25	-270	52.5	45	-78.75	-255	-101.25	-217.5
1542	-510	-247.5	33.75	26.25	-97.5	-277.5	-123.75	-240
1543	-506.25	-247.5	15	7.5	-116.25	-292.5	-138.75	-255
1544	-525	-273.75	11.25	3.75	-120	-296.25	-142.5	-262.5
1545	-536.25	-307.5	18.75	7.5	-112.5	-288.75	-135	-258.75
1546	-525	-300	37.5	26.25	-97.5	-273.75	-120	-240
1547	-495	-228.75	33.75	22.5	-97.5	-277.5	-127.5	-247.5
1548	-487.5	-187.5	22.5	11.25	-108.75	-288.75	-138.75	-255
1549	-498.75	-236.25	26.25	18.75	-105	-285	-135	-251.25
1550	-510	-300	37.5	33.75	-90	-273.75	-120	-236.25
1551	-528.75	-322.5	37.5	33.75	-93.75	-270	-120	-232.5
1552	-513.75	-300	30	26.25	-97.5	-270	-120	-236.25
1553	-491.25	-273.75	18.75	15	-108.75	-285	-131.25	-251.25
1554	-487.5	-258.75	18.75	18.75	-105	-281.25	-127.5	-247.5
1555	-506.25	-251.25	33.75	30	-90	-266.25	-116.25	-232.5
1556	-495	-258.75	33.75	30	-90	-266.25	-112.5	-232.5
1557	-491.25	-288.75	22.5	11.25	-105	-277.5	-123.75	-247.5
1558	-517.5	-300	22.5	11.25	-108.75	-281.25	-127.5	-251.25
1559	-528.75	-288.75	30	18.75	-105	-277.5	-123.75	-247.5
1560	-517.5	-270	30	18.75	-101.25	-273.75	-123.75	-247.5
1561	-502.5	-243.75	30	22.5	-97.5	-273.75	-123.75	-243.75
1562	-495	-225	30	26.25	-97.5	-273.75	-120	-240
1563	-495	-243.75	18.75	18.75	-105	-281.25	-127.5	-247.5
1564	-495	-270	11.25	7.5	-112.5	-288.75	-135	-255
1565	-476.25	-273.75	3.75	0	-123.75	-296.25	-146.25	-262.5
1566	-480	-273.75	3.75	-3.75	-127.5	-300	-146.25	-262.5
1567	-528.75	-288.75	11.25	3.75	-116.25	-288.75	-135	-251.25
1568	-543.75	-296.25	22.5	15	-108.75	-281.25	-127.5	-240
1569	-487.5	-281.25	18.75	7.5	-116.25	-285	-131.25	-247.5
1570	-465	-266.25	7.5	-7.5	-127.5	-296.25	-146.25	-266.25
1571	-483.75	-251.25	18.75	3.75	-116.25	-285	-135	-255
1572	-491.25	-243.75	22.5	3.75	-116.25	-285	-135	-251.25
1573	-491.25	-243.75	22.5	11.25	-112.5	-285	-131.25	-247.5
1574	-510	-251.25	26.25	18.75	-105	-277.5	-123.75	-240
1575	-521.25	-258.75	18.75	15	-108.75	-285	-127.5	-243.75
1576	-502.5	-255	15	11.25	-112.5	-285	-127.5	-243.75
1577	-487.5	-262.5	15	3.75	-120	-288.75	-131.25	-247.5
1578	-491.25	-247.5	15	3.75	-120	-288.75	-135	-247.5
1579	-491.25	-217.5	7.5	-7.5	-131.25	-303.75	-146.25	-262.5
1580	-506.25	-228.75	0	-15	-138.75	-311.25	-153.75	-270
1581	-521.25	-258.75	15	-3.75	-127.5	-296.25	-138.75	-255
1582	-517.5	-277.5	33.75	15	-112.5	-281.25	-123.75	-243.75
1583	-491.25	-270	37.5	18.75	-108.75	-281.25	-127.5	-243.75
1584	-468.75	-262.5	30	11.25	-116.25	-288.75	-131.25	-251.25
1585	-461.25	-243.75	45	26.25	-101.25	-273.75	-120	-236.25
1586	-453.75	-210	67.5	48.75	-82.5	-258.75	-105	-225
1587	-483.75	-206.25	71.25	56.25	-82.5	-258.75	-105	-225
1588	-506.25	-225	75	52.5	-82.5	-258.75	-105	-221.25
1589	-472.5	-232.5	63.75	41.25	-93.75	-266.25	-116.25	-232.5
1590	-453.75	-225	60	37.5	-97.5	-270	-120	-240
1591	-450	-213.75	67.5	48.75	-86.25	-258.75	-108.75	-228.75
1592	-435	-206.25	67.5	48.75	-86.25	-258.75	-108.75	-228.75
1593	-431.25	-198.75	60	37.5	-97.5	-270	-120	-240
1594	-461.25	-202.5	60	33.75	-97.5	-273.75	-123.75	-243.75
1595	-480	-198.75	67.5	45	-90	-266.25	-112.5	-236.25
1596	-487.5	-198.75	78.75	56.25	-78.75	-255	-101.25	-225
1597	-495	-206.25	86.25	63.75	-71.25	-243.75	-90	-213.75
1598	-476.25	-191.25	90	67.5	-63.75	-240	-82.5	-206.25
1599	-461.25	-161.25	63.75	45	-82.5	-258.75	-97.5	-217.5
1600	-468.75	-153.75	41.25	26.25	-97.5	-270	-108.75	-228.75
1601	-450	-161.25	37.5	30	-90	-258.75	-97.5	-217.5
1602	-378.75	-161.25	33.75	33.75	-86.25	-251.25	-90	-206.25
1603	-382.5	-191.25	22.5	30	-86.25	-247.5	-86.25	-202.5
1604	-427.5	-210	11.25	18.75	-93.75	-251.25	-90	-210
1605	-431.25	-183.75	0	7.5	-101.25	-258.75	-97.5	-213.75
1606	-431.25	-168.75	-3.75	7.5	-97.5	-255	-93.75	-213.75
1607	-416.25	-176.25	-15	3.75	-101.25	-262.5	-101.25	-217.5
1608	-416.25	-176.25	-15	3.75	-105	-262.5	-101.25	-217.5
1609	-427.5	-153.75	-15	3.75	-101.25	-262.5	-101.25	-217.5
1610	-416.25	-146.25	-22.5	-3.75	-112.5	-273.75	-108.75	-221.25
1611	-420	-172.5	-30	-7.5	-120	-281.25	-112.5	-225
1612	-442.5	-213.75	-30	-7.5	-116.25	-281.25	-112.5	-225
1613	-442.5	-232.5	-33.75	-15	-123.75	-288.75	-120	-232.5
1614	-431.25	-217.5	-33.75	-18.75	-127.5	-292.5	-127.5	-240
1615	-431.25	-195	-33.75	-26.25	-138.75	-300	-135	-247.5
1616	-427.5	-206.25	-37.5	-37.5	-150	-311.25	-146.25	-258.75
1617	-412.5	-240	-26.25	-30	-142.5	-303.75	-138.75	-255
1618	-423.75	-262.5	-15	-26.25	-138.75	-296.25	-135	-255
1619	-457.5	-258.75	-7.5	-22.5	-138.75	-300	-135	-255
1620	-472.5	-266.25	-7.5	-18.75	-138.75	-300	-138.75	-255
1621	-468.75	-262.5	-11.25	-22.5	-138.75	-307.5	-142.5	-262.5
1622	-450	-240	-15	-22.5	-142.5	-315	-150	-270
1623	-446.25	-251.25	-26.25	-37.5	-161.25	-330	-165	-285
1624	-465	-281.25	-26.25	-41.25	-165	-330	-165	-281.25
1625	-468.75	-281.25	-30	-52.5	-172.5	-337.5	-168.75	-288.75
1626	-468.75	-262.5	-37.5	-60	-180	-345	-180	-296.25
1627	-495	-292.5	-30	-52.5	-168.75	-337.5	-168.75	-285
1628	-502.5	-345	-18.75	-52.5	-168.75	-333.75	-165	-281.25
1629	-510	-363.75	-22.5	-60	-180	-341.25	-172.5	-292.5
1630	-510	-348.75	-30	-67.5	-187.5	-348.75	-180	-303.75
1631	-487.5	-326.25	-41.25	-75	-195	-356.25	-187.5	-311.25
1632	-502.5	-341.25	-41.25	-78.75	-198.75	-363.75	-195	-315
1633	-510	-345	-33.75	-71.25	-191.25	-356.25	-187.5	-307.5
1634	-495	-318.75	-22.5	-52.5	-176.25	-341.25	-172.5	-292.5
1635	-525	-322.5	-26.25	-56.25	-176.25	-345	-172.5	-292.5
1636	-521.25	-315	-33.75	-63.75	-191.25	-356.25	-183.75	-303.75
1637	-476.25	-300	-33.75	-71.25	-195	-360	-187.5	-303.75
1638	-453.75	-311.25	-37.5	-67.5	-191.25	-356.25	-183.75	-300
1639	-472.5	-315	-30	-63.75	-183.75	-345	-176.25	-292.5
1640	-532.5	-330	-26.25	-60	-176.25	-337.5	-165	-285
1641	-543.75	-352.5	-37.5	-71.25	-191.25	-348.75	-180	-300
1642	-495	-356.25	-52.5	-90	-210	-367.5	-198.75	-318.75
1643	-461.25	-326.25	-52.5	-90	-210	-371.25	-198.75	-318.75
1644	-461.25	-285	-52.5	-90	-206.25	-371.25	-198.75	-318.75
1645	-495	-270	-63.75	-97.5	-217.5	-382.5	-210	-330
1646	-513.75	-288.75	-52.5	-82.5	-206.25	-367.5	-198.75	-315
1647	-491.25	-326.25	-52.5	-78.75	-202.5	-367.5	-195	-311.25
1648	-457.5	-311.25	-60	-86.25	-210	-375	-202.5	-318.75
1649	-442.5	-285	-60	-90	-213.75	-378.75	-206.25	-322.5
1650	-446.25	-303.75	-48.75	-78.75	-206.25	-375	-206.25	-322.5
1651	-468.75	-348.75	-26.25	-67.5	-206.25	-382.5	-213.75	-333.75
1652	-476.25	-397.5	0	-52.5	-213.75	-405	-243.75	-363.75
1653	-495	-435	33.75	-26.25	-225	-431.25	-277.5	-401.25
1654	-510	-457.5	86.25	7.5	-228.75	-457.5	-311.25	-435
1655	-491.25	-465	135	45	-232.5	-480	-341.25	-465
1656	-472.5	-457.5	168.75	78.75	-228.75	-495	-360	-483.75
1657	-461.25	-420	206.25	135	-195	-472.5	-345	-468.75
1658	-416.25	-348.75	251.25	213.75	-131.25	-423.75	-303.75	-427.5
1659	-386.25	-300	285	292.5	-63.75	-367.5	-251.25	-378.75
1660	-371.25	-266.25	307.5	363.75	11.25	-300	-191.25	-326.25
1661	-318.75	-210	315	408.75	67.5	-240	-127.5	-270
1662	-258.75	-123.75	315	446.25	123.75	-172.5	-60	-202.5
1663	-195	-22.5	318.75	502.5	206.25	-71.25	45	-105
1664	-123.75	75	307.5	558.75	300	37.5	157.5	0
1665	-71.25	210	277.5	588.75	378.75	142.5	266.25	101.25
1666	-7.5	363.75	221.25	577.5	446.25	255	390	232.5
1667	52.5	513.75	176.25	588.75	551.25	401.25	551.25	390
1668	93.75	667.5	176.25	660	693.75	581.25	738.75	566.25
1669	120	870	168.75	716.25	840	776.25	952.5	780
1670	123.75	1095	71.25	686.25	937.5	956.25	1166.25	1008.75
1671	161.25	1226.25	-71.25	588.75	975	1080	1323.75	1166.25
1672	180	1286.25	-195	461.25	993.75	1173.75	1436.25	1275
1673	135	1327.5	-277.5	345	1027.5	1282.5	1552.5	1380
1674	71.25	1301.25	-296.25	311.25	1080	1365	1616.25	1410
1675	15	1256.25	-281.25	315	1132.5	1406.25	1620	1368.75
1676	-67.5	1230	-307.5	243.75	1132.5	1410	1605	1331.25
1677	-180	1136.25	-341.25	123.75	1072.5	1361.25	1548.75	1267.5
1678	-296.25	926.25	-360	0	937.5	1196.25	1368.75	1095
1679	-382.5	705	-352.5	-108.75	742.5	937.5	1106.25	855
1680	-453.75	525	-352.5	-225	510	645	836.25	626.25
1681	-536.25	382.5	-352.5	-356.25	247.5	345	566.25	416.25
1682	-603.75	251.25	-363.75	-495	-7.5	63.75	315	217.5
1683	-652.5	86.25	-375	-588.75	-183.75	-142.5	112.5	37.5
1684	-675	-71.25	-360	-585	-247.5	-247.5	-18.75	-105
1685	-660	-150	-352.5	-536.25	-247.5	-281.25	-86.25	-191.25
1686	-637.5	-161.25	-352.5	-487.5	-221.25	-273.75	-93.75	-210
1687	-607.5	-172.5	-345	-423.75	-187.5	-247.5	-71.25	-202.5
1688	-592.5	-217.5	-322.5	-378.75	-183.75	-243.75	-67.5	-202.5
1689	-603.75	-232.5	-300	-356.25	-206.25	-270	-86.25	-210
1690	-585	-206.25	-281.25	-326.25	-225	-292.5	-101.25	-221.25
1691	-532.5	-172.5	-255	-277.5	-210	-288.75	-97.5	-217.5
1692	-491.25	-150	-217.5	-210	-168.75	-262.5	-75	-195
1693	-453.75	-123.75	-180	-146.25	-127.5	-236.25	-56.25	-180
1694	-431.25	-123.75	-142.5	-90	-90	-217.5	-45	-172.5
1695	-423.75	-161.25	-108.75	-45	-60	-202.5	-41.25	-176.25
1696	-435	-191.25	-86.25	-22.5	-56.25	-206.25	-48.75	-183.75
1697	-420	-187.5	-60	-3.75	-48.75	-202.5	-48.75	-187.5
1698	-393.75	-180	-56.25	-3.75	-56.25	-217.5	-63.75	-206.25
1699	-386.25	-176.25	-56.25	-7.5	-71.25	-232.5	-78.75	-221.25
1700	-386.25	-195	-48.75	-3.75	-75	-240	-86.25	-228.75
1701	-390	-217.5	-48.75	-15	-86.25	-251.25	-97.5	-240
1702	-416.25	-243.75	-41.25	-15	-93.75	-258.75	-101.25	-243.75
1703	-435	-255	-26.25	0	-82.5	-251.25	-93.75	-236.25
1704	-435	-228.75	-22.5	0	-86.25	-255	-97.5	-236.25
1705	-420	-191.25	-30	-3.75	-93.75	-262.5	-108.75	-243.75
1706	-390	-183.75	-41.25	-7.5	-108.75	-277.5	-120	-255
1707	-386.25	-213.75	-52.5	-18.75	-120	-292.5	-135	-270
1708	-405	-225	-52.5	-22.5	-123.75	-296.25	-138.75	-270
1709	-390	-217.5	-41.25	-11.25	-116.25	-285	-127.5	-258.75
1710	-382.5	-251.25	-37.5	-11.25	-116.25	-285	-127.5	-255
1711	-397.5	-281.25	-37.5	-11.25	-116.25	-285	-127.5	-258.75
1712	-393.75	-273.75	-41.25	-18.75	-123.75	-288.75	-135	-266.25
1713	-393.75	-270	-48.75	-30	-142.5	-303.75	-146.25	-277.5
1714	-390	-266.25	-48.75	-33.75	-142.5	-307.5	-150	-281.25
1715	-416.25	-266.25	-33.75	-15	-120	-288.75	-131.25	-266.25
1716	-453.75	-262.5	-18.75	3.75	-105	-270	-112.5	-251.25
1717	-397.5	-240	-30	-3.75	-112.5	-285	-123.75	-262.5
1718	-348.75	-217.5	-33.75	-7.5	-120	-292.5	-131.25	-266.25
1719	-363.75	-195	-33.75	0	-116.25	-288.75	-131.25	-262.5
1720	-360	-176.25	-52.5	-18.75	-135	-307.5	-146.25	-277.5
1721	-337.5	-165	-56.25	-26.25	-142.5	-311.25	-146.25	-281.25
1722	-348.75	-195	-37.5	-7.5	-123.75	-292.5	-127.5	-262.5
1723	-363.75	-240	-26.25	3.75	-108.75	-281.25	-120	-255
1724	-360	-266.25	-30	0	-112.5	-281.25	-120	-258.75
1725	-360	-262.5	-26.25	0	-112.5	-281.25	-120	-255
1726	-367.5	-240	-33.75	-7.5	-120	-285	-123.75	-258.75
1727	-352.5	-210	-33.75	-3.75	-120	-285	-123.75	-258.75
1728	-333.75	-195	-30	0	-116.25	-281.25	-123.75	-258.75
1729	-341.25	-191.25	-22.5	11.25	-105	-273.75	-116.25	-251.25
1730	-348.75	-198.75	-30	11.25	-105	-277.5	-116.25	-255
1731	-330	-210	-45	0	-120	-292.5	-127.5	-266.25
1732	-337.5	-228.75	-45	0	-116.25	-288.75	-127.5	-262.5
1733	-363.75	-228.75	-33.75	7.5	-105	-277.5	-116.25	-251.25
1734	-345	-213.75	-33.75	11.25	-101.25	-270	-108.75	-247.5
1735	-315	-232.5	-37.5	7.5	-105	-273.75	-112.5	-251.25
1736	-307.5	-236.25	-37.5	7.5	-105	-270	-112.5	-247.5
1737	-315	-221.25	-37.5	7.5	-101.25	-266.25	-108.75	-243.75
1738	-333.75	-225	-33.75	7.5	-97.5	-262.5	-101.25	-240
1739	-345	-202.5	-41.25	7.5	-101.25	-266.25	-105	-247.5
1740	-345	-180	-52.5	3.75	-108.75	-273.75	-112.5	-251.25
1741	-337.5	-176.25	-45	11.25	-101.25	-266.25	-105	-243.75
1742	-296.25	-172.5	-33.75	26.25	-86.25	-251.25	-93.75	-232.5
1743	-277.5	-183.75	-26.25	41.25	-71.25	-243.75	-82.5	-221.25
1744	-307.5	-183.75	-15	52.5	-60	-232.5	-71.25	-210
1745	-292.5	-165	-26.25	41.25	-67.5	-240	-78.75	-213.75
1746	-251.25	-157.5	-41.25	33.75	-75	-247.5	-86.25	-221.25
1747	-258.75	-176.25	-41.25	33.75	-75	-247.5	-86.25	-221.25
1748	-270	-187.5	-41.25	30	-78.75	-251.25	-90	-225
1749	-258.75	-172.5	-37.5	30	-78.75	-247.5	-86.25	-221.25
1750	-270	-172.5	-30	37.5	-67.5	-236.25	-75	-213.75
1751	-273.75	-180	-37.5	37.5	-67.5	-236.25	-75	-213.75
1752	-262.5	-172.5	-45	33.75	-71.25	-243.75	-78.75	-217.5
1753	-243.75	-161.25	-37.5	45	-63.75	-232.5	-67.5	-206.25
1754	-236.25	-161.25	-30	56.25	-56.25	-228.75	-60	-195
1755	-266.25	-165	-45	45	-67.5	-240	-71.25	-206.25
1756	-277.5	-153.75	-56.25	33.75	-75	-247.5	-82.5	-217.5
1757	-258.75	-153.75	-56.25	33.75	-75	-247.5	-78.75	-213.75
1758	-258.75	-172.5	-45	45	-67.5	-236.25	-67.5	-202.5
1759	-270	-183.75	-41.25	52.5	-60	-232.5	-63.75	-195
1760	-273.75	-202.5	-48.75	41.25	-67.5	-236.25	-67.5	-198.75
1761	-251.25	-202.5	-52.5	33.75	-71.25	-240	-71.25	-206.25
1762	-232.5	-191.25	-48.75	33.75	-71.25	-236.25	-67.5	-202.5
1763	-240	-176.25	-45	37.5	-67.5	-236.25	-63.75	-198.75
1764	-255	-172.5	-48.75	37.5	-75	-240	-71.25	-202.5
1765	-262.5	-142.5	-52.5	37.5	-75	-240	-71.25	-206.25
1766	-247.5	-97.5	-63.75	30	-78.75	-247.5	-78.75	-206.25
1767	-206.25	-97.5	-60	33.75	-78.75	-247.5	-71.25	-202.5
1768	-187.5	-127.5	-52.5	41.25	-75	-243.75	-67.5	-195
1769	-187.5	-142.5	-41.25	45	-71.25	-236.25	-56.25	-183.75
1770	-187.5	-150	-48.75	37.5	-75	-240	-63.75	-187.5
1771	-202.5	-146.25	-45	45	-67.5	-236.25	-60	-183.75
1772	-236.25	-146.25	-33.75	52.5	-60	-225	-45	-172.5
1773	-255	-153.75	-33.75	48.75	-63.75	-225	-41.25	-168.75
1774	-213.75	-153.75	-52.5	26.25	-90	-247.5	-63.75	-191.25
1775	-161.25	-131.25	-63.75	15	-101.25	-258.75	-78.75	-202.5
1776	-168.75	-127.5	-63.75	11.25	-101.25	-258.75	-75	-202.5
1777	-210	-138.75	-56.25	15	-101.25	-262.5	-78.75	-202.5
1778	-213.75	-120	-48.75	26.25	-93.75	-255	-71.25	-191.25
1779	-195	-108.75	-67.5	11.25	-108.75	-266.25	-78.75	-198.75
1780	-168.75	-105	-75	0	-120	-273.75	-86.25	-202.5
1781	-153.75	-105	-71.25	0	-120	-273.75	-82.5	-198.75
1782	-157.5	-123.75	-71.25	-3.75	-123.75	-273.75	-82.5	-195
1783	-138.75	-138.75	-71.25	-7.5	-127.5	-277.5	-82.5	-198.75
1784	-146.25	-146.25	-63.75	-3.75	-123.75	-273.75	-78.75	-191.25
1785	-195	-142.5	-52.5	3.75	-116.25	-262.5	-67.5	-180
1786	-210	-142.5	-52.5	-3.75	-127.5	-270	-75	-183.75
1787	-202.5	-138.75	-67.5	-22.5	-146.25	-288.75	-90	-202.5
1788	-195	-131.25	-67.5	-26.25	-150	-292.5	-93.75	-202.5
1789	-176.25	-135	-60	-15	-142.5	-281.25	-82.5	-191.25
1790	-161.25	-131.25	-52.5	-11.25	-142.5	-281.25	-75	-183.75
1791	-146.25	-105	-48.75	-7.5	-142.5	-281.25	-75	-180
1792	-153.75	-75	-60	-18.75	-153.75	-292.5	-86.25	-187.5
1793	-176.25	-52.5	-75	-41.25	-172.5	-307.5	-101.25	-198.75
1794	-172.5	-52.5	-86.25	-52.5	-183.75	-318.75	-108.75	-206.25
1795	-138.75	-82.5	-86.25	-60	-187.5	-322.5	-112.5	-210
1796	-150	-138.75	-82.5	-63.75	-195	-322.5	-116.25	-213.75
1797	-195	-165	-75	-60	-191.25	-318.75	-108.75	-206.25
1798	-195	-135	-56.25	-45	-176.25	-303.75	-93.75	-191.25
1799	-168.75	-90	-48.75	-37.5	-172.5	-300	-90	-183.75
1800	-157.5	-82.5	-48.75	-41.25	-176.25	-303.75	-93.75	-187.5
1801	-150	-101.25	-52.5	-48.75	-187.5	-311.25	-101.25	-195
1802	-146.25	-97.5	-48.75	-37.5	-176.25	-307.5	-97.5	-191.25
1803	-138.75	-90	-56.25	-41.25	-183.75	-315	-101.25	-195
1804	-135	-105	-52.5	-45	-187.5	-318.75	-105	-198.75
1805	-157.5	-138.75	-37.5	-33.75	-172.5	-307.5	-90	-183.75
1806	-150	-131.25	-30	-26.25	-165	-300	-90	-183.75
1807	-153.75	-112.5	-30	-26.25	-168.75	-303.75	-90	-187.5
1808	-206.25	-120	-26.25	-26.25	-168.75	-303.75	-93.75	-191.25
1809	-202.5	-123.75	-37.5	-33.75	-176.25	-311.25	-105	-206.25
1810	-172.5	-116.25	-45	-45	-183.75	-322.5	-120	-225
1811	-183.75	-97.5	-41.25	-37.5	-180	-322.5	-120	-225
1812	-202.5	-101.25	-26.25	-26.25	-168.75	-315	-112.5	-217.5
1813	-213.75	-131.25	-11.25	-11.25	-157.5	-303.75	-105	-210
1814	-217.5	-135	-3.75	3.75	-146.25	-296.25	-97.5	-206.25
1815	-198.75	-127.5	-7.5	0	-146.25	-300	-105	-213.75
1816	-187.5	-138.75	-7.5	0	-146.25	-300	-101.25	-213.75
1817	-206.25	-150	3.75	7.5	-135	-288.75	-97.5	-210
1818	-243.75	-135	15	18.75	-120	-277.5	-86.25	-202.5
1819	-255	-101.25	7.5	11.25	-131.25	-288.75	-97.5	-217.5
1820	-221.25	-86.25	-15	-18.75	-161.25	-322.5	-131.25	-251.25
1821	-206.25	-112.5	-30	-33.75	-176.25	-333.75	-146.25	-266.25
1822	-217.5	-127.5	-18.75	-22.5	-157.5	-322.5	-135	-258.75
1823	-228.75	-142.5	0	-3.75	-142.5	-307.5	-120	-243.75
1824	-232.5	-150	7.5	3.75	-135	-300	-112.5	-240
1825	-266.25	-135	30	26.25	-108.75	-277.5	-93.75	-221.25
1826	-266.25	-127.5	37.5	41.25	-97.5	-266.25	-82.5	-210
1827	-232.5	-150	15	15	-123.75	-296.25	-112.5	-236.25
1828	-240	-138.75	3.75	3.75	-135	-311.25	-127.5	-255
1829	-251.25	-105	3.75	-3.75	-138.75	-315	-131.25	-258.75
1830	-236.25	-123.75	3.75	0	-135	-311.25	-127.5	-258.75
1831	-236.25	-157.5	15	3.75	-127.5	-307.5	-123.75	-255
1832	-251.25	-161.25	7.5	-7.5	-138.75	-315	-135	-266.25
1833	-288.75	-183.75	-11.25	-37.5	-161.25	-337.5	-157.5	-292.5
1834	-315	-202.5	-7.5	-41.25	-165	-341.25	-161.25	-296.25
1835	-318.75	-191.25	15	-18.75	-142.5	-318.75	-138.75	-277.5
1836	-292.5	-168.75	26.25	-7.5	-131.25	-311.25	-131.25	-270
1837	-277.5	-183.75	33.75	0	-123.75	-303.75	-127.5	-262.5
1838	-281.25	-206.25	41.25	11.25	-116.25	-300	-123.75	-255
1839	-281.25	-210	33.75	3.75	-123.75	-307.5	-131.25	-262.5
1840	-300	-217.5	18.75	-15	-146.25	-326.25	-150	-281.25
1841	-307.5	-202.5	7.5	-26.25	-153.75	-333.75	-157.5	-288.75
1842	-292.5	-183.75	7.5	-26.25	-150	-330	-153.75	-285
1843	-303.75	-187.5	11.25	-30	-150	-330	-153.75	-285
1844	-318.75	-176.25	7.5	-33.75	-157.5	-337.5	-161.25	-292.5
1845	-307.5	-183.75	7.5	-30	-150	-330	-153.75	-288.75
1846	-296.25	-210	18.75	-22.5	-142.5	-318.75	-142.5	-277.5
1847	-277.5	-191.25	30	-15	-135	-311.25	-131.25	-266.25
1848	-262.5	-168.75	30	-11.25	-127.5	-307.5	-131.25	-266.25
1849	-277.5	-183.75	26.25	-15	-131.25	-311.25	-135	-273.75
1850	-288.75	-183.75	30	-3.75	-123.75	-303.75	-127.5	-270
1851	-296.25	-183.75	18.75	-7.5	-127.5	-311.25	-135	-277.5
1852	-326.25	-202.5	-3.75	-33.75	-150	-337.5	-157.5	-300
1853	-337.5	-168.75	-7.5	-37.5	-153.75	-337.5	-157.5	-303.75
1854	-322.5	-153.75	0	-30	-146.25	-322.5	-150	-292.5
1855	-296.25	-180	0	-26.25	-142.5	-322.5	-146.25	-288.75
1856	-285	-202.5	-3.75	-30	-150	-326.25	-150	-296.25
1857	-292.5	-221.25	0	-30	-146.25	-318.75	-146.25	-292.5
1858	-292.5	-221.25	0	-30	-146.25	-322.5	-150	-292.5
1859	-281.25	-183.75	-3.75	-33.75	-150	-330	-157.5	-300
1860	-311.25	-165	0	-30	-150	-326.25	-153.75	-296.25
1861	-326.25	-187.5	11.25	-22.5	-138.75	-315	-142.5	-285
1862	-285	-198.75	15	-11.25	-127.5	-307.5	-135	-281.25
1863	-281.25	-183.75	15	-11.25	-127.5	-307.5	-138.75	-281.25
1864	-307.5	-165	3.75	-22.5	-135	-318.75	-146.25	-288.75
1865	-300	-153.75	-3.75	-22.5	-135	-315	-146.25	-288.75
1866	-292.5	-183.75	-7.5	-30	-142.5	-322.5	-150	-292.5
1867	-288.75	-210	-7.5	-30	-142.5	-322.5	-150	-292.5
1868	-281.25	-225	-15	-45	-153.75	-333.75	-161.25	-307.5
1869	-292.5	-228.75	-3.75	-37.5	-146.25	-322.5	-150	-296.25
1870	-307.5	-206.25	11.25	-18.75	-131.25	-307.5	-135	-285
1871	-300	-176.25	7.5	-26.25	-138.75	-318.75	-146.25	-292.5
1872	-281.25	-135	-3.75	-33.75	-146.25	-326.25	-153.75	-303.75
1873	-262.5	-123.75	3.75	-22.5	-135	-311.25	-138.75	-288.75
1874	-247.5	-168.75	7.5	-15	-131.25	-311.25	-138.75	-285
1875	-236.25	-191.25	3.75	-11.25	-127.5	-311.25	-142.5	-288.75
1876	-240	-180	7.5	-7.5	-123.75	-307.5	-138.75	-285
1877	-243.75	-165	3.75	-18.75	-131.25	-315	-146.25	-288.75
1878	-277.5	-168.75	3.75	-15	-127.5	-311.25	-142.5	-288.75
1879	-288.75	-172.5	7.5	-11.25	-123.75	-307.5	-138.75	-281.25
1880	-281.25	-187.5	0	-18.75	-131.25	-315	-146.25	-288.75
1881	-292.5	-202.5	0	-26.25	-135	-315	-150	-292.5
1882	-281.25	-195	0	-30	-135	-315	-146.25	-292.5
1883	-262.5	-165	-3.75	-33.75	-142.5	-322.5	-153.75	-300
1884	-258.75	-138.75	0	-30	-138.75	-318.75	-150	-296.25
1885	-255	-135	-3.75	-26.25	-135	-318.75	-150	-292.5
1886	-258.75	-131.25	-3.75	-26.25	-135	-318.75	-150	-292.5
1887	-266.25	-131.25	-11.25	-33.75	-150	-330	-157.5	-300
1888	-266.25	-157.5	-22.5	-41.25	-153.75	-333.75	-165	-307.5
1889	-262.5	-165	-22.5	-41.25	-150	-333.75	-161.25	-307.5
1890	-255	-153.75	-11.25	-33.75	-138.75	-322.5	-153.75	-296.25
1891	-243.75	-153.75	-15	-41.25	-146.25	-330	-157.5	-300
1892	-262.5	-176.25	-30	-60	-161.25	-345	-168.75	-318.75
1893	-277.5	-176.25	-18.75	-52.5	-153.75	-333.75	-161.25	-307.5
1894	-273.75	-165	-7.5	-41.25	-146.25	-322.5	-150	-300
1895	-270	-198.75	-3.75	-30	-138.75	-315	-146.25	-292.5
1896	-255	-221.25	3.75	-26.25	-131.25	-307.5	-138.75	-285
1897	-243.75	-202.5	0	-26.25	-135	-311.25	-142.5	-288.75
1898	-251.25	-183.75	0	-26.25	-135	-311.25	-142.5	-288.75
1899	-296.25	-195	3.75	-15	-127.5	-307.5	-135	-281.25
1900	-288.75	-187.5	0	-22.5	-131.25	-311.25	-142.5	-288.75
1901	-247.5	-191.25	-22.5	-48.75	-153.75	-333.75	-161.25	-307.5
1902	-258.75	-217.5	-18.75	-45	-150	-330	-161.25	-307.5
1903	-277.5	-213.75	-18.75	-41.25	-146.25	-326.25	-153.75	-303.75
1904	-273.75	-206.25	-22.5	-52.5	-153.75	-333.75	-161.25	-307.5
1905	-266.25	-206.25	-30	-63.75	-161.25	-337.5	-165	-315
1906	-270	-187.5	-18.75	-56.25	-157.5	-333.75	-161.25	-311.25
1907	-281.25	-165	-11.25	-48.75	-150	-322.5	-153.75	-303.75
1908	-273.75	-146.25	-7.5	-41.25	-142.5	-318.75	-146.25	-300
1909	-277.5	-150	-3.75	-37.5	-142.5	-315	-142.5	-296.25
1910	-270	-135	11.25	-22.5	-127.5	-307.5	-135	-285
1911	-240	-116.25	7.5	-22.5	-131.25	-311.25	-138.75	-288.75
1912	-232.5	-116.25	11.25	-26.25	-135	-315	-142.5	-292.5
1913	-247.5	-112.5	18.75	-26.25	-131.25	-311.25	-135	-285
1914	-236.25	-108.75	18.75	-26.25	-127.5	-311.25	-135	-288.75
1915	-206.25	-108.75	18.75	-22.5	-127.5	-311.25	-138.75	-292.5
1916	-232.5	-116.25	37.5	-7.5	-112.5	-296.25	-123.75	-277.5
1917	-266.25	-138.75	45	-3.75	-112.5	-292.5	-116.25	-273.75
1918	-236.25	-131.25	37.5	-11.25	-120	-296.25	-123.75	-281.25
1919	-206.25	-120	30	-15	-123.75	-303.75	-135	-288.75
1920	-195	-112.5	30	-18.75	-123.75	-307.5	-138.75	-292.5
1921	-206.25	-97.5	37.5	-11.25	-120	-303.75	-131.25	-285
1922	-210	-86.25	45	0	-112.5	-296.25	-123.75	-277.5
1923	-236.25	-90	45	7.5	-105	-292.5	-120	-273.75
1924	-240	-75	45	11.25	-97.5	-288.75	-112.5	-266.25
1925	-206.25	-45	48.75	7.5	-101.25	-285	-108.75	-262.5
1926	-195	-45	37.5	0	-108.75	-288.75	-108.75	-262.5
1927	-191.25	-63.75	26.25	-11.25	-112.5	-292.5	-112.5	-262.5
1928	-206.25	-78.75	15	-15	-112.5	-292.5	-112.5	-262.5
1929	-225	-86.25	0	-26.25	-123.75	-296.25	-116.25	-266.25
1930	-213.75	-101.25	-7.5	-30	-120	-292.5	-116.25	-266.25
1931	-183.75	-97.5	-11.25	-26.25	-112.5	-288.75	-105	-255
1932	-172.5	-71.25	-22.5	-30	-116.25	-288.75	-105	-255
1933	-172.5	-56.25	-33.75	-33.75	-120	-292.5	-112.5	-258.75
1934	-176.25	-48.75	-22.5	-26.25	-108.75	-285	-101.25	-247.5
1935	-172.5	-56.25	-26.25	-26.25	-112.5	-285	-105	-247.5
1936	-172.5	-48.75	-48.75	-41.25	-127.5	-300	-116.25	-258.75
1937	-183.75	-18.75	-60	-60	-142.5	-315	-127.5	-273.75
1938	-176.25	-15	-71.25	-78.75	-157.5	-333.75	-142.5	-288.75
1939	-172.5	-56.25	-71.25	-78.75	-157.5	-330	-142.5	-288.75
1940	-202.5	-135	-60	-67.5	-146.25	-318.75	-131.25	-277.5
1941	-210	-172.5	-60	-75	-153.75	-322.5	-135	-285
1942	-198.75	-142.5	-56.25	-82.5	-168.75	-337.5	-146.25	-296.25
1943	-217.5	-142.5	-60	-93.75	-180	-345	-153.75	-300
1944	-236.25	-157.5	-56.25	-90	-172.5	-337.5	-153.75	-300
1945	-221.25	-157.5	-37.5	-67.5	-150	-322.5	-135	-285
1946	-198.75	-153.75	-15	-45	-131.25	-307.5	-120	-270
1947	-191.25	-138.75	-26.25	-52.5	-142.5	-315	-131.25	-277.5
1948	-183.75	-112.5	-26.25	-56.25	-146.25	-318.75	-135	-281.25
1949	-183.75	-123.75	-22.5	-60	-150	-326.25	-142.5	-285
1950	-221.25	-165	-41.25	-82.5	-172.5	-348.75	-161.25	-307.5
1951	-247.5	-180	-60	-108.75	-198.75	-371.25	-183.75	-326.25
1952	-251.25	-195	-67.5	-120	-210	-378.75	-195	-337.5
1953	-240	-202.5	-67.5	-123.75	-210	-375	-191.25	-333.75
1954	-247.5	-206.25	-56.25	-116.25	-206.25	-367.5	-183.75	-330
1955	-296.25	-210	-37.5	-97.5	-183.75	-352.5	-168.75	-318.75
1956	-318.75	-206.25	-30	-90	-176.25	-348.75	-165	-315
1957	-266.25	-191.25	-48.75	-108.75	-195	-371.25	-187.5	-337.5
1958	-213.75	-161.25	-56.25	-116.25	-202.5	-378.75	-198.75	-341.25
1959	-221.25	-165	-63.75	-116.25	-206.25	-382.5	-198.75	-345
1960	-225	-176.25	-71.25	-123.75	-210	-386.25	-202.5	-348.75
1961	-225	-172.5	-63.75	-120	-206.25	-378.75	-198.75	-341.25
1962	-236.25	-187.5	-67.5	-131.25	-213.75	-386.25	-202.5	-345
1963	-243.75	-198.75	-71.25	-131.25	-213.75	-386.25	-206.25	-345
1964	-228.75	-198.75	-67.5	-127.5	-210	-382.5	-202.5	-345
1965	-236.25	-221.25	-67.5	-131.25	-213.75	-382.5	-198.75	-341.25
1966	-270	-225	-67.5	-138.75	-217.5	-386.25	-202.5	-348.75
1967	-288.75	-198.75	-78.75	-146.25	-225	-393.75	-213.75	-360
1968	-300	-195	-86.25	-153.75	-232.5	-401.25	-221.25	-367.5
1969	-296.25	-183.75	-71.25	-138.75	-213.75	-386.25	-206.25	-352.5
1970	-277.5	-157.5	-60	-120	-206.25	-378.75	-195	-341.25
1971	-236.25	-157.5	-67.5	-123.75	-206.25	-382.5	-198.75	-341.25
1972	-202.5	-165	-71.25	-127.5	-210	-386.25	-202.5	-345
1973	-206.25	-168.75	-71.25	-131.25	-213.75	-386.25	-206.25	-348.75
1974	-232.5	-180	-71.25	-131.25	-213.75	-386.25	-202.5	-345
1975	-255	-202.5	-67.5	-127.5	-206.25	-378.75	-195	-337.5
1976	-236.25	-217.5	-63.75	-127.5	-206.25	-382.5	-198.75	-341.25
1977	-221.25	-228.75	-75	-142.5	-225	-401.25	-217.5	-360
1978	-251.25	-232.5	-60	-135	-228.75	-408.75	-225	-371.25
1979	-277.5	-243.75	-22.5	-101.25	-221.25	-412.5	-236.25	-378.75
1980	-262.5	-281.25	15	-75	-228.75	-438.75	-266.25	-416.25
1981	-251.25	-315	56.25	-45	-240	-472.5	-311.25	-461.25
1982	-255	-326.25	101.25	-18.75	-251.25	-513.75	-352.5	-498.75
1983	-247.5	-330	138.75	11.25	-258.75	-532.5	-375	-517.5
1984	-225	-318.75	176.25	60	-232.5	-517.5	-363.75	-506.25
1985	-206.25	-281.25	225	138.75	-165	-465	-318.75	-465
1986	-168.75	-247.5	262.5	221.25	-93.75	-401.25	-266.25	-420
1987	-123.75	-217.5	277.5	273.75	-41.25	-352.5	-221.25	-378.75
1988	-93.75	-157.5	273.75	311.25	3.75	-307.5	-180	-341.25
1989	-67.5	-86.25	273.75	345	52.5	-255	-120	-288.75
1990	-3.75	26.25	270	386.25	120	-172.5	-33.75	-202.5
1991	97.5	161.25	270	450	221.25	-56.25	82.5	-90
1992	172.5	277.5	262.5	510	322.5	71.25	213.75	30
1993	213.75	405	232.5	532.5	416.25	202.5	356.25	176.25
1994	270	585	183.75	543.75	521.25	352.5	517.5	333.75
1995	300	776.25	161.25	592.5	641.25	506.25	682.5	491.25
1996	318.75	971.25	135	626.25	761.25	675	862.5	671.25
1997	375	1192.5	26.25	581.25	843.75	836.25	1057.5	873.75
1998	438.75	1342.5	-108.75	502.5	900	978.75	1230	1053.75
1999	416.25	1395	-202.5	427.5	963.75	1113.75	1383.75	1200
2000	356.25	1425	-285	311.25	997.5	1222.5	1507.5	1308.75
2001	288.75	1387.5	-300	273.75	1057.5	1323.75	1590	1357.5
2002	228.75	1301.25	-277.5	292.5	1125	1383.75	1616.25	1335
2003	168.75	1267.5	-315	217.5	1121.25	1387.5	1597.5	1293.75
2004	90	1218.75	-367.5	90	1065	1338.75	1537.5	1230
2005	26.25	1046.25	-390	-26.25	948.75	1192.5	1380	1068.75
2006	-60	840	-371.25	-120	776.25	956.25	1136.25	847.5
2007	-146.25	690	-356.25	-221.25	558.75	678.75	873.75	626.25
2008	-247.5	540	-367.5	-360	292.5	375	600	408.75
2009	-363.75	382.5	-397.5	-528.75	7.5	67.5	318.75	183.75
2010	-423.75	251.25	-408.75	-633.75	-187.5	-153.75	108.75	0
2011	-420	123.75	-390	-630	-258.75	-266.25	-26.25	-142.5
2012	-412.5	-3.75	-386.25	-596.25	-270	-318.75	-108.75	-240
2013	-405	-60	-378.75	-543.75	-243.75	-307.5	-112.5	-258.75
2014	-390	-67.5	-360	-472.5	-198.75	-270	-82.5	-243.75
2015	-382.5	-97.5	-345	-427.5	-187.5	-262.5	-75	-240
2016	-378.75	-138.75	-326.25	-401.25	-206.25	-285	-86.25	-243.75
2017	-341.25	-138.75	-303.75	-367.5	-221.25	-303.75	-101.25	-251.25
2018	-307.5	-101.25	-270	-311.25	-202.5	-300	-97.5	-243.75
2019	-288.75	-63.75	-247.5	-262.5	-180	-292.5	-93.75	-240
2020	-221.25	-11.25	-225	-217.5	-153.75	-281.25	-86.25	-236.25
2021	-153.75	18.75	-183.75	-153.75	-108.75	-247.5	-63.75	-217.5
2022	-146.25	-22.5	-135	-101.25	-71.25	-225	-48.75	-206.25
2023	-157.5	-52.5	-116.25	-78.75	-67.5	-228.75	-56.25	-221.25
2024	-165	-48.75	-97.5	-71.25	-67.5	-232.5	-63.75	-228.75
2025	-176.25	-82.5	-78.75	-60	-63.75	-232.5	-63.75	-228.75
2026	-172.5	-116.25	-67.5	-56.25	-71.25	-243.75	-75	-240
2027	-161.25	-108.75	-67.5	-60	-82.5	-255	-86.25	-251.25
2028	-172.5	-105	-67.5	-63.75	-90	-262.5	-97.5	-262.5
2029	-183.75	-97.5	-67.5	-67.5	-101.25	-277.5	-108.75	-273.75
2030	-176.25	-90	-56.25	-56.25	-97.5	-273.75	-105	-266.25
2031	-176.25	-116.25	-48.75	-45	-93.75	-273.75	-105	-262.5
2032	-165	-142.5	-63.75	-63.75	-112.5	-296.25	-123.75	-281.25
2033	-138.75	-123.75	-71.25	-75	-127.5	-311.25	-138.75	-296.25
2034	-172.5	-120	-63.75	-75	-127.5	-311.25	-138.75	-292.5
2035	-228.75	-150	-56.25	-67.5	-123.75	-303.75	-131.25	-285
2036	-217.5	-161.25	-56.25	-71.25	-127.5	-307.5	-135	-288.75
2037	-168.75	-150	-60	-71.25	-131.25	-311.25	-138.75	-292.5
2038	-157.5	-146.25	-56.25	-71.25	-131.25	-307.5	-138.75	-288.75
2039	-161.25	-142.5	-52.5	-67.5	-131.25	-303.75	-135	-288.75
2040	-165	-146.25	-60	-75	-135	-315	-142.5	-300
2041	-176.25	-150	-60	-75	-138.75	-318.75	-146.25	-303.75
2042	-187.5	-142.5	-48.75	-60	-123.75	-307.5	-135	-288.75
2043	-195	-146.25	-48.75	-52.5	-120	-303.75	-131.25	-277.5
2044	-157.5	-138.75	-63.75	-67.5	-131.25	-315	-142.5	-292.5
2045	-135	-120	-71.25	-71.25	-138.75	-318.75	-150	-296.25
2046	-153.75	-127.5	-71.25	-71.25	-138.75	-318.75	-146.25	-292.5
2047	-135	-123.75	-75	-75	-142.5	-318.75	-146.25	-296.25
2048	-101.25	-116.25	-78.75	-86.25	-153.75	-322.5	-150	-300
2049	-123.75	-135	-86.25	-93.75	-157.5	-330	-157.5	-307.5
2050	-161.25	-142.5	-82.5	-86.25	-146.25	-326.25	-153.75	-303.75
2051	-183.75	-127.5	-67.5	-71.25	-131.25	-311.25	-138.75	-288.75
2052	-183.75	-123.75	-63.75	-67.5	-131.25	-311.25	-138.75	-288.75
2053	-153.75	-116.25	-67.5	-67.5	-131.25	-307.5	-138.75	-288.75
2054	-131.25	-86.25	-56.25	-52.5	-116.25	-296.25	-127.5	-277.5
2055	-123.75	-67.5	-71.25	-60	-127.5	-307.5	-138.75	-285
2056	-120	-82.5	-82.5	-67.5	-135	-311.25	-138.75	-288.75
2057	-127.5	-123.75	-67.5	-56.25	-123.75	-300	-123.75	-277.5
2058	-123.75	-157.5	-63.75	-48.75	-116.25	-292.5	-120	-270
2059	-101.25	-157.5	-67.5	-52.5	-120	-296.25	-123.75	-273.75
2060	-93.75	-142.5	-71.25	-52.5	-116.25	-296.25	-123.75	-273.75
2061	-112.5	-138.75	-67.5	-52.5	-116.25	-292.5	-120	-273.75
2062	-108.75	-127.5	-75	-60	-123.75	-300	-127.5	-277.5
2063	-116.25	-112.5	-67.5	-52.5	-116.25	-292.5	-120	-273.75
2064	-135	-112.5	-67.5	-52.5	-116.25	-292.5	-120	-273.75
2065	-138.75	-131.25	-75	-56.25	-123.75	-296.25	-127.5	-281.25
2066	-108.75	-131.25	-67.5	-45	-112.5	-288.75	-120	-270
2067	-90	-105	-63.75	-30	-97.5	-281.25	-112.5	-262.5
2068	-127.5	-82.5	-71.25	-33.75	-101.25	-285	-116.25	-266.25
2069	-135	-86.25	-75	-37.5	-105	-281.25	-112.5	-262.5
2070	-93.75	-105	-75	-33.75	-101.25	-281.25	-112.5	-258.75
2071	-78.75	-90	-71.25	-33.75	-97.5	-277.5	-105	-255
2072	-71.25	-67.5	-78.75	-37.5	-101.25	-277.5	-108.75	-258.75
2073	-67.5	-82.5	-82.5	-45	-108.75	-281.25	-112.5	-262.5
2074	-86.25	-105	-71.25	-33.75	-93.75	-266.25	-97.5	-247.5
2075	-78.75	-105	-60	-22.5	-82.5	-258.75	-86.25	-240
2076	-48.75	-90	-71.25	-30	-93.75	-270	-97.5	-255
2077	-71.25	-78.75	-78.75	-37.5	-101.25	-277.5	-108.75	-258.75
2078	-112.5	-75	-63.75	-15	-82.5	-258.75	-90	-240
2079	-93.75	-82.5	-67.5	-11.25	-78.75	-262.5	-90	-240
2080	-52.5	-93.75	-90	-33.75	-97.5	-281.25	-108.75	-258.75
2081	-63.75	-112.5	-86.25	-30	-93.75	-273.75	-101.25	-251.25
2082	-75	-108.75	-71.25	-11.25	-75	-258.75	-86.25	-232.5
2083	-63.75	-78.75	-78.75	-18.75	-82.5	-266.25	-90	-236.25
2084	-67.5	-78.75	-90	-33.75	-93.75	-273.75	-101.25	-247.5
2085	-60	-105	-90	-37.5	-93.75	-270	-97.5	-243.75
2086	-56.25	-112.5	-82.5	-30	-86.25	-262.5	-86.25	-236.25
2087	-82.5	-101.25	-67.5	-11.25	-71.25	-247.5	-71.25	-225
2088	-71.25	-67.5	-75	-18.75	-78.75	-255	-78.75	-228.75
2089	-48.75	-41.25	-93.75	-37.5	-97.5	-270	-97.5	-243.75
2090	-56.25	-37.5	-90	-26.25	-82.5	-262.5	-86.25	-232.5
2091	-45	-45	-90	-22.5	-82.5	-262.5	-86.25	-228.75
2092	-41.25	-48.75	-105	-41.25	-101.25	-281.25	-105	-247.5
2093	-30	-33.75	-120	-56.25	-116.25	-296.25	-116.25	-258.75
2094	-37.5	-37.5	-108.75	-45	-105	-285	-105	-243.75
2095	-63.75	-60	-93.75	-26.25	-90	-266.25	-86.25	-228.75
2096	-63.75	-78.75	-86.25	-26.25	-90	-262.5	-82.5	-221.25
2097	-45	-90	-97.5	-45	-108.75	-273.75	-90	-232.5
2098	-41.25	-105	-108.75	-56.25	-116.25	-285	-101.25	-243.75
2099	-48.75	-116.25	-101.25	-52.5	-112.5	-281.25	-97.5	-240
2100	-45	-101.25	-93.75	-45	-105	-273.75	-86.25	-228.75
2101	-45	-71.25	-82.5	-30	-93.75	-258.75	-71.25	-213.75
2102	-15	-30	-86.25	-30	-93.75	-262.5	-75	-213.75
2103	26.25	-18.75	-97.5	-41.25	-108.75	-277.5	-90	-221.25
2104	7.5	-56.25	-116.25	-63.75	-131.25	-296.25	-108.75	-240
2105	-18.75	-63.75	-112.5	-60	-135	-292.5	-101.25	-236.25
2106	11.25	-22.5	-97.5	-48.75	-120	-277.5	-86.25	-221.25
2107	26.25	-26.25	-108.75	-63.75	-131.25	-292.5	-97.5	-228.75
2108	-11.25	-75	-120	-82.5	-157.5	-311.25	-116.25	-243.75
2109	-41.25	-101.25	-116.25	-86.25	-161.25	-311.25	-112.5	-240
2110	-33.75	-97.5	-108.75	-82.5	-153.75	-303.75	-105	-236.25
2111	-41.25	-86.25	-101.25	-78.75	-146.25	-300	-101.25	-228.75
2112	-45	-75	-101.25	-75	-150	-300	-97.5	-228.75
2113	-22.5	-60	-101.25	-82.5	-157.5	-303.75	-97.5	-228.75
2114	3.75	-45	-108.75	-86.25	-161.25	-311.25	-105	-232.5
2115	18.75	-37.5	-112.5	-86.25	-165	-315	-108.75	-232.5
2116	18.75	-45	-120	-97.5	-176.25	-326.25	-120	-240
2117	26.25	-45	-131.25	-108.75	-187.5	-333.75	-127.5	-243.75
2118	3.75	-45	-120	-101.25	-180	-326.25	-116.25	-232.5
2119	-18.75	-45	-112.5	-101.25	-180	-322.5	-112.5	-225
2120	0	-41.25	-131.25	-127.5	-206.25	-348.75	-135	-247.5
2121	3.75	-48.75	-146.25	-146.25	-225	-360	-146.25	-262.5
2122	0	-56.25	-131.25	-138.75	-213.75	-348.75	-135	-247.5
2123	3.75	-63.75	-112.5	-123.75	-202.5	-341.25	-120	-240
2124	-11.25	-71.25	-116.25	-127.5	-210	-348.75	-127.5	-243.75
2125	-22.5	-52.5	-120	-127.5	-217.5	-352.5	-131.25	-243.75
2126	-33.75	-48.75	-112.5	-120	-210	-345	-127.5	-236.25
2127	-30	-67.5	-108.75	-116.25	-210	-345	-127.5	-236.25
2128	-18.75	-71.25	-120	-131.25	-221.25	-360	-138.75	-251.25
2129	-37.5	-63.75	-123.75	-135	-228.75	-363.75	-142.5	-251.25
2130	-30	-56.25	-116.25	-131.25	-221.25	-356.25	-135	-243.75
2131	-22.5	-56.25	-105	-120	-213.75	-348.75	-127.5	-236.25
2132	-45	-67.5	-101.25	-120	-213.75	-348.75	-131.25	-243.75
2133	-18.75	-56.25	-112.5	-135	-228.75	-363.75	-146.25	-262.5
2134	0	-45	-108.75	-135	-228.75	-363.75	-150	-266.25
2135	-26.25	-56.25	-93.75	-120	-213.75	-352.5	-138.75	-258.75
2136	-48.75	-63.75	-90	-116.25	-213.75	-356.25	-142.5	-262.5
2137	-52.5	-63.75	-86.25	-112.5	-210	-356.25	-146.25	-262.5
2138	-37.5	-45	-86.25	-105	-202.5	-352.5	-142.5	-262.5
2139	-56.25	-33.75	-78.75	-97.5	-198.75	-348.75	-142.5	-262.5
2140	-90	-52.5	-78.75	-97.5	-198.75	-356.25	-150	-277.5
2141	-67.5	-63.75	-93.75	-112.5	-210	-371.25	-168.75	-292.5
2142	-56.25	-67.5	-97.5	-112.5	-213.75	-371.25	-168.75	-296.25
2143	-86.25	-93.75	-82.5	-101.25	-198.75	-360	-157.5	-285
2144	-116.25	-146.25	-52.5	-75	-172.5	-337.5	-135	-266.25
2145	-97.5	-153.75	-41.25	-67.5	-165	-330	-131.25	-262.5
2146	-78.75	-105	-45	-75	-168.75	-333.75	-135	-273.75
2147	-86.25	-78.75	-48.75	-82.5	-172.5	-341.25	-142.5	-281.25
2148	-116.25	-97.5	-56.25	-86.25	-180	-348.75	-153.75	-292.5
2149	-150	-120	-48.75	-75	-172.5	-341.25	-150	-288.75
2150	-135	-105	-41.25	-63.75	-161.25	-333.75	-142.5	-285
2151	-120	-105	-41.25	-63.75	-165	-341.25	-150	-288.75
2152	-123.75	-123.75	-41.25	-63.75	-161.25	-341.25	-153.75	-296.25
2153	-131.25	-131.25	-41.25	-71.25	-165	-345	-157.5	-300
2154	-150	-146.25	-45	-75	-168.75	-352.5	-165	-311.25
2155	-146.25	-153.75	-45	-78.75	-168.75	-352.5	-168.75	-315
2156	-142.5	-157.5	-41.25	-82.5	-176.25	-356.25	-168.75	-318.75
2157	-172.5	-183.75	-45	-90	-183.75	-363.75	-176.25	-330
2158	-183.75	-187.5	-41.25	-86.25	-172.5	-356.25	-176.25	-326.25
2159	-172.5	-168.75	-26.25	-71.25	-157.5	-341.25	-161.25	-311.25
2160	-195	-172.5	-22.5	-75	-161.25	-341.25	-165	-315
2161	-187.5	-172.5	-33.75	-86.25	-172.5	-356.25	-176.25	-330
2162	-165	-150	-30	-78.75	-165	-352.5	-172.5	-326.25
2163	-168.75	-142.5	-22.5	-67.5	-157.5	-348.75	-168.75	-318.75
2164	-172.5	-165	-37.5	-86.25	-172.5	-360	-180	-330
2165	-183.75	-191.25	-48.75	-105	-191.25	-378.75	-195	-348.75
2166	-213.75	-202.5	-60	-116.25	-198.75	-386.25	-206.25	-360
2167	-206.25	-191.25	-52.5	-112.5	-195	-382.5	-202.5	-356.25
2168	-187.5	-191.25	-56.25	-116.25	-198.75	-386.25	-206.25	-363.75
2169	-213.75	-221.25	-60	-131.25	-213.75	-393.75	-217.5	-371.25
2170	-221.25	-206.25	-63.75	-135	-213.75	-393.75	-217.5	-375
2171	-195	-161.25	-60	-127.5	-206.25	-390	-213.75	-371.25
2172	-183.75	-161.25	-56.25	-123.75	-202.5	-382.5	-206.25	-367.5
2173	-183.75	-176.25	-52.5	-120	-195	-378.75	-202.5	-363.75
2174	-206.25	-183.75	-37.5	-97.5	-176.25	-360	-183.75	-345
2175	-251.25	-195	-37.5	-90	-168.75	-356.25	-176.25	-337.5
2176	-273.75	-191.25	-45	-97.5	-180	-363.75	-183.75	-345
2177	-262.5	-191.25	-56.25	-108.75	-187.5	-375	-191.25	-352.5
2178	-247.5	-206.25	-52.5	-105	-183.75	-367.5	-187.5	-348.75
2179	-243.75	-228.75	-45	-101.25	-176.25	-363.75	-183.75	-348.75
2180	-225	-225	-48.75	-108.75	-183.75	-371.25	-191.25	-356.25
2181	-187.5	-191.25	-60	-120	-195	-382.5	-202.5	-367.5
2182	-180	-168.75	-71.25	-131.25	-202.5	-390	-213.75	-375
2183	-217.5	-187.5	-63.75	-123.75	-195	-382.5	-206.25	-367.5
2184	-221.25	-195	-56.25	-112.5	-183.75	-375	-195	-360
2185	-206.25	-191.25	-60	-112.5	-183.75	-371.25	-195	-360
2186	-210	-198.75	-60	-105	-176.25	-367.5	-191.25	-352.5
2187	-225	-206.25	-52.5	-97.5	-168.75	-360	-183.75	-348.75
2188	-240	-213.75	-52.5	-101.25	-172.5	-363.75	-187.5	-352.5
2189	-232.5	-213.75	-60	-105	-176.25	-367.5	-191.25	-356.25
2190	-236.25	-217.5	-56.25	-105	-172.5	-360	-187.5	-352.5
2191	-243.75	-225	-60	-112.5	-180	-367.5	-195	-356.25
2192	-255	-236.25	-63.75	-120	-191.25	-375	-198.75	-363.75
2193	-258.75	-247.5	-71.25	-127.5	-195	-378.75	-202.5	-371.25
2194	-232.5	-236.25	-75	-127.5	-191.25	-375	-202.5	-367.5
2195	-217.5	-217.5	-67.5	-123.75	-187.5	-371.25	-198.75	-363.75
2196	-236.25	-217.5	-60	-120	-183.75	-371.25	-195	-360
2197	-232.5	-213.75	-63.75	-116.25	-180	-371.25	-195	-360
2198	-217.5	-183.75	-56.25	-105	-172.5	-360	-187.5	-352.5
2199	-213.75	-168.75	-63.75	-108.75	-180	-371.25	-195	-360
2200	-210	-180	-86.25	-131.25	-202.5	-393.75	-217.5	-378.75
2201	-225	-183.75	-82.5	-131.25	-198.75	-386.25	-213.75	-375
