samplenr,I,II,V1,V2,V3,V4,V5,V6,measurement
0,52.5,-93.75,93.75,157.5,41.25,-3.75,-45,15,24.166666666666668
1,56.25,-90,86.25,150,33.75,-7.5,-48.75,7.5,20.833333333333332
2,67.5,-67.5,93.75,157.5,45,0,-45,11.25,29.166666666666668
3,75,-52.5,101.25,168.75,56.25,11.25,-33.75,22.5,38.75
4,67.5,-63.75,105,176.25,60,15,-30,22.5,39.166666666666664
5,63.75,-71.25,108.75,180,63.75,11.25,-30,22.5,38.75
6,86.25,-63.75,112.5,191.25,71.25,22.5,-22.5,33.75,47.916666666666664
7,93.75,-71.25,112.5,198.75,78.75,30,-11.25,45,52.916666666666664
8,90,-82.5,116.25,198.75,78.75,30,-7.5,48.75,52.5
9,90,-82.5,116.25,195,78.75,33.75,-11.25,48.75,52.083333333333336
10,97.5,-78.75,112.5,198.75,78.75,37.5,-7.5,48.75,54.166666666666664
11,90,-82.5,108.75,202.5,78.75,37.5,-7.5,48.75,52.916666666666664
12,82.5,-86.25,105,191.25,75,33.75,-15,45,47.916666666666664
13,82.5,-78.75,101.25,187.5,75,30,-18.75,33.75,45.833333333333336
14,78.75,-67.5,97.5,191.25,71.25,26.25,-22.5,30,45.0
15,82.5,-56.25,105,195,71.25,30,-15,37.5,50.0
16,90,-48.75,108.75,206.25,86.25,37.5,-11.25,41.25,56.666666666666664
17,108.75,-37.5,105,213.75,93.75,45,-3.75,48.75,63.75
18,131.25,-30,112.5,217.5,97.5,56.25,7.5,63.75,72.91666666666667
19,138.75,-37.5,116.25,225,101.25,60,15,71.25,76.66666666666667
20,120,-48.75,112.5,225,105,60,18.75,71.25,73.75
21,116.25,-48.75,105,221.25,101.25,60,15,67.5,70.83333333333333
22,120,-45,108.75,225,105,63.75,18.75,71.25,74.16666666666667
23,116.25,-45,108.75,225,105,63.75,18.75,71.25,73.75
24,112.5,-41.25,105,221.25,101.25,63.75,15,71.25,72.08333333333333
25,123.75,-26.25,105,217.5,101.25,63.75,15,71.25,74.58333333333333
26,131.25,-22.5,101.25,217.5,97.5,56.25,7.5,63.75,72.5
27,123.75,-30,101.25,213.75,93.75,52.5,3.75,60,68.75
28,116.25,-33.75,105,217.5,97.5,56.25,11.25,67.5,70.83333333333333
29,131.25,-26.25,105,225,105,63.75,15,71.25,76.66666666666667
30,146.25,-30,105,232.5,112.5,71.25,22.5,82.5,82.5
31,153.75,-37.5,105,236.25,116.25,78.75,30,90,85.83333333333333
32,157.5,-26.25,105,236.25,120,82.5,37.5,101.25,90.41666666666667
33,161.25,-11.25,108.75,232.5,116.25,82.5,41.25,105,92.91666666666667
34,168.75,-7.5,108.75,228.75,108.75,82.5,41.25,101.25,92.5
35,168.75,-11.25,105,225,105,78.75,37.5,101.25,90.0
36,168.75,-11.25,101.25,217.5,97.5,75,33.75,97.5,86.66666666666667
37,165,-7.5,97.5,217.5,97.5,71.25,30,90,84.58333333333333
38,165,3.75,97.5,217.5,97.5,67.5,26.25,86.25,84.58333333333333
39,165,7.5,93.75,206.25,90,60,26.25,82.5,81.25
40,172.5,11.25,90,210,93.75,67.5,30,86.25,84.58333333333333
41,183.75,18.75,93.75,213.75,93.75,67.5,30,90,87.91666666666667
42,187.5,26.25,105,221.25,97.5,67.5,33.75,97.5,92.91666666666667
43,183.75,22.5,108.75,225,101.25,75,41.25,108.75,96.25
44,183.75,11.25,105,221.25,97.5,71.25,37.5,105,92.5
45,180,0,101.25,213.75,90,63.75,30,97.5,86.25
46,172.5,3.75,108.75,217.5,97.5,67.5,37.5,101.25,89.58333333333333
47,168.75,3.75,105,210,90,60,33.75,101.25,85.83333333333333
48,157.5,-7.5,105,202.5,75,52.5,22.5,93.75,77.91666666666667
49,153.75,-7.5,101.25,195,67.5,45,15,82.5,72.5
50,157.5,3.75,101.25,195,67.5,45,15,78.75,73.75
51,172.5,26.25,105,195,67.5,45,15,78.75,78.33333333333333
52,176.25,30,108.75,195,63.75,41.25,11.25,75,77.91666666666667
53,172.5,18.75,112.5,198.75,63.75,37.5,11.25,78.75,77.08333333333333
54,165,11.25,120,202.5,63.75,41.25,18.75,82.5,78.33333333333333
55,176.25,11.25,127.5,210,67.5,45,22.5,90,83.33333333333333
56,172.5,3.75,127.5,210,75,45,22.5,93.75,83.33333333333333
57,168.75,0,123.75,202.5,60,33.75,15,86.25,76.66666666666667
58,168.75,-3.75,127.5,198.75,60,33.75,15,86.25,76.25
59,168.75,-3.75,131.25,198.75,60,33.75,15,86.25,76.66666666666667
60,157.5,-3.75,131.25,195,56.25,30,7.5,78.75,72.5
61,150,3.75,131.25,187.5,48.75,22.5,0,67.5,67.91666666666667
62,135,3.75,131.25,183.75,41.25,11.25,-11.25,52.5,60.833333333333336
63,120,-3.75,135,180,33.75,3.75,-22.5,41.25,54.166666666666664
64,116.25,-15,135,180,30,-3.75,-26.25,37.5,50.416666666666664
65,108.75,-26.25,138.75,180,30,-3.75,-26.25,37.5,48.75
66,112.5,-22.5,142.5,180,30,-7.5,-26.25,37.5,49.583333333333336
67,127.5,-22.5,153.75,191.25,33.75,0,-22.5,48.75,56.666666666666664
68,123.75,-37.5,153.75,195,41.25,3.75,-22.5,48.75,56.25
69,116.25,-48.75,150,187.5,33.75,-7.5,-30,37.5,48.75
70,101.25,-60,146.25,176.25,22.5,-15,-37.5,33.75,40.833333333333336
71,86.25,-63.75,146.25,172.5,18.75,-22.5,-45,22.5,35.0
72,63.75,-71.25,150,172.5,15,-26.25,-52.5,15,29.583333333333332
73,63.75,-67.5,153.75,165,11.25,-26.25,-56.25,11.25,28.333333333333332
74,78.75,-52.5,153.75,157.5,7.5,-33.75,-60,3.75,28.333333333333332
75,71.25,-48.75,157.5,157.5,3.75,-37.5,-63.75,0,26.666666666666668
76,63.75,-56.25,153.75,157.5,3.75,-37.5,-67.5,-7.5,23.333333333333332
77,63.75,-63.75,150,157.5,3.75,-41.25,-71.25,-11.25,20.833333333333332
78,67.5,-71.25,157.5,165,7.5,-37.5,-63.75,-3.75,24.583333333333332
79,67.5,-82.5,161.25,168.75,11.25,-30,-60,3.75,26.666666666666668
80,60,-90,153.75,157.5,3.75,-41.25,-67.5,-7.5,18.75
81,48.75,-86.25,153.75,150,0,-45,-71.25,-7.5,15.833333333333334
82,45,-97.5,150,142.5,-7.5,-48.75,-78.75,-15,10.0
83,37.5,-112.5,146.25,135,-11.25,-56.25,-86.25,-22.5,3.3333333333333335
84,22.5,-127.5,142.5,127.5,-18.75,-60,-90,-30,-3.75
85,7.5,-146.25,138.75,116.25,-30,-71.25,-105,-41.25,-14.583333333333334
86,0,-135,138.75,108.75,-37.5,-78.75,-112.5,-52.5,-18.75
87,-3.75,-123.75,142.5,112.5,-30,-75,-108.75,-48.75,-15.0
88,-11.25,-123.75,142.5,108.75,-33.75,-82.5,-112.5,-52.5,-18.333333333333332
89,-11.25,-120,142.5,101.25,-41.25,-82.5,-116.25,-56.25,-20.416666666666668
90,7.5,-112.5,146.25,108.75,-30,-75,-105,-45,-11.666666666666666
91,18.75,-120,142.5,112.5,-26.25,-71.25,-101.25,-41.25,-9.583333333333334
92,3.75,-142.5,138.75,105,-33.75,-78.75,-108.75,-45,-17.916666666666668
93,-3.75,-150,123.75,93.75,-41.25,-86.25,-116.25,-52.5,-25.833333333333332
94,3.75,-142.5,123.75,90,-41.25,-82.5,-112.5,-48.75,-23.333333333333332
95,7.5,-146.25,123.75,86.25,-45,-86.25,-112.5,-52.5,-25.0
96,-7.5,-153.75,120,78.75,-52.5,-93.75,-120,-60,-32.083333333333336
97,-26.25,-150,112.5,71.25,-56.25,-97.5,-127.5,-67.5,-37.916666666666664
98,-30,-138.75,112.5,60,-67.5,-105,-135,-75,-42.083333333333336
99,-26.25,-131.25,116.25,56.25,-75,-108.75,-138.75,-78.75,-42.916666666666664
100,-22.5,-135,120,67.5,-63.75,-105,-135,-75,-38.75
101,-30,-142.5,120,67.5,-60,-108.75,-135,-78.75,-40.833333333333336
102,-26.25,-150,120,67.5,-67.5,-112.5,-135,-75,-42.083333333333336
103,-26.25,-168.75,123.75,71.25,-60,-105,-127.5,-67.5,-40.0
104,-41.25,-180,116.25,67.5,-67.5,-108.75,-131.25,-71.25,-46.25
105,-37.5,-176.25,120,60,-75,-112.5,-135,-71.25,-47.5
106,-30,-176.25,123.75,63.75,-67.5,-105,-131.25,-63.75,-42.916666666666664
107,-41.25,-183.75,116.25,63.75,-63.75,-101.25,-127.5,-63.75,-44.583333333333336
108,-48.75,-187.5,112.5,56.25,-71.25,-105,-131.25,-71.25,-49.583333333333336
109,-45,-183.75,105,48.75,-78.75,-116.25,-142.5,-78.75,-54.583333333333336
110,-45,-168.75,101.25,41.25,-86.25,-120,-150,-90,-57.5
111,-37.5,-150,108.75,45,-78.75,-116.25,-146.25,-86.25,-51.25
112,-33.75,-153.75,116.25,48.75,-78.75,-116.25,-146.25,-86.25,-50.0
113,-41.25,-165,116.25,52.5,-78.75,-116.25,-146.25,-86.25,-51.666666666666664
114,-33.75,-161.25,116.25,60,-71.25,-108.75,-135,-78.75,-45.833333333333336
115,-15,-153.75,116.25,67.5,-63.75,-105,-127.5,-67.5,-38.75
116,-18.75,-157.5,116.25,67.5,-60,-101.25,-123.75,-67.5,-38.333333333333336
117,-22.5,-157.5,112.5,63.75,-60,-101.25,-127.5,-67.5,-40.0
118,-30,-161.25,112.5,56.25,-67.5,-108.75,-135,-71.25,-45.0
119,-33.75,-168.75,112.5,52.5,-75,-108.75,-135,-75,-47.916666666666664
120,-33.75,-176.25,112.5,60,-67.5,-105,-131.25,-75,-46.25
121,-48.75,-187.5,108.75,52.5,-71.25,-112.5,-138.75,-82.5,-53.333333333333336
122,-52.5,-183.75,108.75,52.5,-75,-112.5,-138.75,-82.5,-53.75
123,-41.25,-165,112.5,60,-63.75,-105,-135,-82.5,-46.666666666666664
124,-33.75,-146.25,112.5,60,-60,-105,-131.25,-82.5,-42.916666666666664
125,-30,-138.75,116.25,71.25,-56.25,-101.25,-127.5,-78.75,-38.333333333333336
126,-22.5,-142.5,120,75,-52.5,-93.75,-120,-67.5,-33.75
127,-18.75,-153.75,116.25,75,-48.75,-90,-116.25,-60,-32.916666666666664
128,-26.25,-168.75,112.5,71.25,-48.75,-90,-116.25,-63.75,-36.666666666666664
129,-30,-172.5,108.75,63.75,-63.75,-97.5,-123.75,-71.25,-42.916666666666664
130,-22.5,-165,108.75,67.5,-60,-97.5,-123.75,-67.5,-40.0
131,-11.25,-150,108.75,75,-45,-90,-116.25,-60,-32.083333333333336
132,-11.25,-150,105,75,-48.75,-93.75,-120,-63.75,-34.166666666666664
133,-15,-146.25,105,67.5,-56.25,-101.25,-131.25,-75,-39.166666666666664
134,-30,-142.5,101.25,60,-60,-108.75,-138.75,-82.5,-44.583333333333336
135,-30,-135,105,63.75,-60,-105,-138.75,-82.5,-42.5
136,-33.75,-131.25,105,67.5,-56.25,-101.25,-131.25,-78.75,-40.0
137,-33.75,-131.25,112.5,71.25,-48.75,-93.75,-123.75,-71.25,-35.416666666666664
138,-30,-142.5,120,82.5,-41.25,-86.25,-112.5,-60,-30.0
139,-26.25,-146.25,123.75,90,-33.75,-78.75,-105,-52.5,-25.416666666666668
140,-22.5,-150,116.25,86.25,-37.5,-78.75,-105,-52.5,-27.083333333333332
141,-15,-150,116.25,86.25,-33.75,-75,-101.25,-48.75,-24.583333333333332
142,-7.5,-138.75,120,90,-30,-71.25,-97.5,-45,-20.0
143,-7.5,-142.5,120,86.25,-30,-71.25,-97.5,-45,-20.833333333333332
144,-22.5,-161.25,112.5,78.75,-41.25,-82.5,-108.75,-56.25,-31.25
145,-37.5,-168.75,101.25,63.75,-48.75,-90,-120,-71.25,-41.25
146,-45,-168.75,97.5,60,-56.25,-93.75,-123.75,-75,-45.0
147,-30,-150,105,63.75,-52.5,-90,-120,-71.25,-38.333333333333336
148,-26.25,-135,116.25,75,-41.25,-82.5,-112.5,-63.75,-30.0
149,-26.25,-131.25,116.25,71.25,-41.25,-82.5,-108.75,-63.75,-29.583333333333332
150,-15,-127.5,112.5,78.75,-37.5,-75,-101.25,-56.25,-24.583333333333332
151,-7.5,-127.5,112.5,82.5,-37.5,-75,-101.25,-52.5,-22.916666666666668
152,-11.25,-138.75,108.75,75,-41.25,-78.75,-105,-52.5,-27.083333333333332
153,-11.25,-146.25,97.5,67.5,-45,-78.75,-105,-52.5,-30.416666666666668
154,-3.75,-138.75,105,75,-33.75,-67.5,-93.75,-45,-22.5
155,-7.5,-138.75,101.25,75,-33.75,-71.25,-97.5,-48.75,-24.583333333333332
156,-18.75,-142.5,97.5,71.25,-37.5,-75,-101.25,-48.75,-28.333333333333332
157,-26.25,-146.25,93.75,60,-52.5,-82.5,-108.75,-60,-35.833333333333336
158,-26.25,-142.5,93.75,56.25,-52.5,-86.25,-108.75,-63.75,-36.666666666666664
159,-22.5,-135,97.5,63.75,-45,-78.75,-105,-60,-31.666666666666668
160,-18.75,-123.75,105,67.5,-41.25,-75,-101.25,-52.5,-26.666666666666668
161,-15,-112.5,105,71.25,-33.75,-71.25,-93.75,-48.75,-22.083333333333332
162,-3.75,-108.75,108.75,78.75,-26.25,-63.75,-86.25,-41.25,-15.833333333333334
163,0,-127.5,105,75,-30,-67.5,-86.25,-37.5,-18.75
164,-15,-150,93.75,63.75,-45,-78.75,-97.5,-45,-30.416666666666668
165,-11.25,-150,90,60,-48.75,-75,-97.5,-45,-30.833333333333332
166,-3.75,-146.25,90,56.25,-48.75,-75,-97.5,-45,-30.0
167,0,-146.25,90,52.5,-52.5,-78.75,-101.25,-45,-31.25
168,-7.5,-150,86.25,52.5,-48.75,-78.75,-101.25,-48.75,-32.916666666666664
169,-22.5,-150,90,45,-60,-86.25,-108.75,-56.25,-38.75
170,-26.25,-142.5,78.75,41.25,-63.75,-93.75,-116.25,-67.5,-43.333333333333336
171,-22.5,-127.5,82.5,45,-56.25,-86.25,-112.5,-63.75,-37.916666666666664
172,-15,-116.25,86.25,48.75,-52.5,-82.5,-108.75,-56.25,-32.916666666666664
173,-11.25,-116.25,93.75,56.25,-45,-78.75,-101.25,-52.5,-28.333333333333332
174,-11.25,-123.75,93.75,63.75,-45,-75,-97.5,-48.75,-27.083333333333332
175,-3.75,-123.75,97.5,67.5,-37.5,-67.5,-90,-37.5,-21.666666666666668
176,-3.75,-131.25,90,60,-41.25,-71.25,-93.75,-37.5,-25.416666666666668
177,-7.5,-138.75,86.25,56.25,-48.75,-75,-97.5,-41.25,-29.583333333333332
178,-15,-138.75,82.5,52.5,-48.75,-75,-97.5,-41.25,-31.25
179,-11.25,-135,75,41.25,-63.75,-82.5,-101.25,-45,-35.833333333333336
180,-30,-157.5,75,33.75,-71.25,-90,-108.75,-52.5,-44.583333333333336
181,-41.25,-168.75,67.5,30,-67.5,-93.75,-116.25,-60,-50.0
182,-33.75,-150,75,33.75,-63.75,-86.25,-112.5,-60,-44.166666666666664
183,-22.5,-131.25,75,30,-67.5,-90,-112.5,-63.75,-42.5
184,-26.25,-127.5,71.25,30,-67.5,-93.75,-116.25,-67.5,-44.166666666666664
185,-33.75,-135,75,30,-67.5,-93.75,-116.25,-63.75,-45.0
186,-18.75,-131.25,82.5,41.25,-56.25,-78.75,-101.25,-48.75,-34.583333333333336
187,-7.5,-138.75,82.5,45,-56.25,-78.75,-97.5,-45,-32.916666666666664
188,-15,-150,78.75,41.25,-60,-86.25,-101.25,-45,-37.5
189,-7.5,-138.75,71.25,37.5,-60,-86.25,-101.25,-45,-36.666666666666664
190,-3.75,-138.75,71.25,33.75,-60,-82.5,-105,-45,-36.666666666666664
191,-18.75,-153.75,67.5,26.25,-71.25,-93.75,-112.5,-52.5,-45.416666666666664
192,-22.5,-153.75,63.75,22.5,-75,-101.25,-120,-56.25,-49.166666666666664
193,-15,-150,63.75,15,-78.75,-101.25,-120,-63.75,-50.0
194,-26.25,-153.75,60,7.5,-86.25,-108.75,-123.75,-71.25,-55.833333333333336
195,-37.5,-150,67.5,7.5,-90,-108.75,-123.75,-71.25,-56.25
196,-37.5,-150,67.5,15,-78.75,-101.25,-120,-67.5,-52.5
197,-26.25,-146.25,63.75,18.75,-75,-97.5,-116.25,-63.75,-49.166666666666664
198,-7.5,-135,63.75,18.75,-75,-97.5,-112.5,-60,-45.0
199,-7.5,-135,71.25,30,-67.5,-90,-101.25,-48.75,-38.75
200,-22.5,-150,75,30,-67.5,-90,-101.25,-48.75,-41.666666666666664
201,-26.25,-157.5,67.5,18.75,-75,-93.75,-108.75,-52.5,-47.5
202,-15,-150,67.5,18.75,-75,-93.75,-105,-48.75,-44.583333333333336
203,-15,-142.5,67.5,22.5,-71.25,-90,-105,-48.75,-42.5
204,-30,-142.5,71.25,18.75,-78.75,-93.75,-108.75,-52.5,-46.25
205,-41.25,-142.5,71.25,15,-78.75,-97.5,-112.5,-56.25,-49.166666666666664
206,-37.5,-127.5,78.75,22.5,-67.5,-90,-108.75,-56.25,-42.916666666666664
207,-26.25,-108.75,82.5,18.75,-71.25,-90,-108.75,-56.25,-40.0
208,-18.75,-97.5,90,30,-63.75,-82.5,-101.25,-52.5,-32.916666666666664
209,-18.75,-93.75,97.5,41.25,-56.25,-78.75,-97.5,-48.75,-28.333333333333332
210,-15,-93.75,101.25,48.75,-48.75,-75,-90,-41.25,-23.75
211,-7.5,-93.75,101.25,45,-56.25,-75,-86.25,-33.75,-22.916666666666668
212,-11.25,-101.25,101.25,41.25,-60,-75,-86.25,-33.75,-25.0
213,-15,-97.5,108.75,48.75,-48.75,-67.5,-86.25,-33.75,-21.25
214,-7.5,-90,120,60,-41.25,-63.75,-82.5,-30,-15.0
215,0,-86.25,120,60,-37.5,-60,-78.75,-30,-12.5
216,-3.75,-90,120,60,-41.25,-60,-78.75,-30,-13.75
217,-11.25,-90,120,60,-41.25,-60,-78.75,-33.75,-15.0
218,-18.75,-86.25,127.5,63.75,-33.75,-56.25,-78.75,-33.75,-12.916666666666666
219,-22.5,-78.75,131.25,63.75,-41.25,-60,-86.25,-37.5,-14.583333333333334
220,-26.25,-67.5,138.75,67.5,-37.5,-56.25,-78.75,-30,-10.0
221,-18.75,-45,142.5,75,-30,-48.75,-71.25,-22.5,-2.0833333333333335
222,-3.75,-41.25,142.5,78.75,-26.25,-45,-63.75,-18.75,2.5
223,3.75,-45,146.25,86.25,-18.75,-37.5,-56.25,-7.5,7.916666666666667
224,0,-48.75,131.25,82.5,-18.75,-37.5,-56.25,-3.75,5.416666666666667
225,-3.75,-56.25,116.25,67.5,-26.25,-48.75,-60,-7.5,-2.0833333333333335
226,11.25,-45,108.75,63.75,-30,-45,-60,-7.5,-0.4166666666666667
227,18.75,-41.25,101.25,63.75,-30,-41.25,-60,-3.75,0.8333333333333334
228,3.75,-56.25,82.5,52.5,-37.5,-48.75,-63.75,-7.5,-8.333333333333334
229,0,-60,67.5,41.25,-45,-56.25,-71.25,-15,-15.416666666666666
230,15,-45,56.25,37.5,-48.75,-56.25,-71.25,-18.75,-14.583333333333334
231,30,-30,63.75,41.25,-45,-56.25,-71.25,-15,-9.166666666666666
232,30,-30,67.5,45,-45,-56.25,-67.5,-15,-7.916666666666667
233,30,-33.75,63.75,41.25,-45,-56.25,-67.5,-15,-9.166666666666666
234,33.75,-41.25,52.5,37.5,-45,-60,-71.25,-15,-12.083333333333334
235,45,-60,52.5,37.5,-45,-56.25,-67.5,-7.5,-11.25
236,45,-82.5,45,33.75,-48.75,-56.25,-67.5,-3.75,-15.0
237,41.25,-90,37.5,18.75,-56.25,-63.75,-71.25,-11.25,-21.666666666666668
238,45,-90,33.75,11.25,-63.75,-71.25,-78.75,-18.75,-25.833333333333332
239,45,-93.75,45,22.5,-60,-63.75,-71.25,-11.25,-20.833333333333332
240,26.25,-108.75,45,15,-67.5,-67.5,-78.75,-18.75,-28.333333333333332
241,15,-112.5,41.25,3.75,-75,-78.75,-86.25,-33.75,-36.25
242,22.5,-108.75,45,3.75,-71.25,-78.75,-90,-41.25,-35.416666666666664
243,18.75,-112.5,45,7.5,-71.25,-82.5,-93.75,-45,-37.083333333333336
244,0,-112.5,48.75,7.5,-75,-82.5,-93.75,-45,-39.166666666666664
245,-11.25,-112.5,52.5,7.5,-75,-82.5,-93.75,-45,-40.0
246,-3.75,-101.25,63.75,18.75,-67.5,-78.75,-86.25,-33.75,-32.083333333333336
247,7.5,-101.25,67.5,30,-56.25,-71.25,-78.75,-26.25,-25.416666666666668
248,0,-120,56.25,18.75,-63.75,-75,-82.5,-33.75,-33.333333333333336
249,-3.75,-127.5,48.75,0,-82.5,-90,-93.75,-41.25,-43.333333333333336
250,-3.75,-131.25,48.75,-11.25,-97.5,-97.5,-101.25,-48.75,-49.166666666666664
251,-3.75,-131.25,45,-3.75,-82.5,-93.75,-101.25,-48.75,-46.666666666666664
252,-15,-142.5,33.75,-11.25,-90,-101.25,-112.5,-60,-55.416666666666664
253,-22.5,-142.5,33.75,-22.5,-105,-112.5,-123.75,-67.5,-62.5
254,-37.5,-153.75,33.75,-30,-116.25,-123.75,-138.75,-82.5,-72.08333333333333
255,-41.25,-161.25,33.75,-33.75,-120,-131.25,-142.5,-90,-76.25
256,-37.5,-153.75,33.75,-33.75,-120,-127.5,-138.75,-86.25,-73.75
257,-37.5,-150,33.75,-33.75,-120,-123.75,-135,-82.5,-72.08333333333333
258,-30,-146.25,37.5,-22.5,-108.75,-120,-127.5,-75,-65.83333333333333
259,-15,-146.25,48.75,-3.75,-93.75,-108.75,-112.5,-60,-54.583333333333336
260,-26.25,-172.5,41.25,-15,-105,-112.5,-120,-63.75,-63.75
261,-33.75,-180,33.75,-22.5,-108.75,-116.25,-127.5,-71.25,-69.58333333333333
262,-26.25,-165,33.75,-22.5,-105,-116.25,-123.75,-67.5,-65.83333333333333
263,-26.25,-161.25,33.75,-18.75,-105,-112.5,-120,-63.75,-63.75
264,-33.75,-172.5,33.75,-22.5,-105,-112.5,-120,-67.5,-66.66666666666667
265,-37.5,-172.5,30,-30,-116.25,-123.75,-131.25,-78.75,-73.33333333333333
266,-48.75,-165,30,-37.5,-116.25,-127.5,-135,-82.5,-75.83333333333333
267,-52.5,-161.25,30,-37.5,-116.25,-127.5,-135,-86.25,-76.25
268,-48.75,-153.75,30,-33.75,-116.25,-127.5,-135,-86.25,-74.58333333333333
269,-45,-157.5,26.25,-33.75,-120,-127.5,-138.75,-90,-76.25
270,-37.5,-161.25,30,-30,-112.5,-123.75,-131.25,-82.5,-72.08333333333333
271,-11.25,-146.25,33.75,-15,-101.25,-108.75,-120,-67.5,-59.583333333333336
272,-7.5,-150,33.75,-15,-101.25,-112.5,-120,-67.5,-60.0
273,-26.25,-168.75,33.75,-22.5,-108.75,-120,-127.5,-71.25,-67.91666666666667
274,-33.75,-172.5,37.5,-18.75,-101.25,-112.5,-120,-67.5,-65.41666666666667
275,-30,-168.75,37.5,-15,-101.25,-108.75,-120,-67.5,-63.75
276,-30,-165,41.25,-15,-97.5,-112.5,-123.75,-71.25,-63.75
277,-37.5,-176.25,41.25,-18.75,-108.75,-123.75,-135,-90,-72.08333333333333
278,-41.25,-187.5,56.25,-7.5,-116.25,-135,-150,-105,-76.25
279,-41.25,-198.75,93.75,26.25,-105,-142.5,-165,-123.75,-72.91666666666667
280,-48.75,-221.25,153.75,82.5,-90,-153.75,-183.75,-150,-67.91666666666667
281,-48.75,-255,210,131.25,-86.25,-176.25,-213.75,-180,-68.75
282,-22.5,-262.5,266.25,176.25,-82.5,-187.5,-232.5,-195,-60.0
283,7.5,-247.5,315,228.75,-63.75,-183.75,-228.75,-191.25,-40.416666666666664
284,11.25,-236.25,356.25,296.25,-26.25,-161.25,-213.75,-180,-17.083333333333332
285,26.25,-198.75,405,382.5,37.5,-108.75,-168.75,-138.75,26.25
286,63.75,-142.5,442.5,457.5,105,-56.25,-120,-97.5,72.5
287,108.75,-86.25,468.75,525,176.25,7.5,-60,-45,121.66666666666667
288,157.5,-18.75,483.75,577.5,236.25,71.25,3.75,15,169.58333333333334
289,210,63.75,495,626.25,300,146.25,75,82.5,222.08333333333334
290,277.5,153.75,498.75,686.25,382.5,236.25,165,161.25,284.5833333333333
291,341.25,266.25,483.75,746.25,491.25,360,288.75,273.75,361.25
292,393.75,393.75,446.25,780,592.5,487.5,420,401.25,435.0
293,450,528.75,375,787.5,693.75,626.25,566.25,543.75,507.9166666666667
294,521.25,697.5,303.75,802.5,821.25,791.25,738.75,705,597.9166666666666
295,577.5,888.75,281.25,840,960,975,922.5,881.25,702.9166666666666
296,592.5,1087.5,210,795,1050,1136.25,1106.25,1065,782.5
297,611.25,1327.5,56.25,671.25,1113.75,1297.5,1308.75,1282.5,852.0833333333334
298,656.25,1515,-90,536.25,1166.25,1451.25,1492.5,1470,910.8333333333334
299,697.5,1575,-255,360,1177.5,1548.75,1608.75,1578.75,921.25
300,686.25,1608.75,-405,206.25,1200,1642.5,1706.25,1668.75,923.75
301,603.75,1605,-446.25,172.5,1267.5,1732.5,1777.5,1702.5,935.0
302,513.75,1548.75,-420,187.5,1342.5,1792.5,1796.25,1680,937.9166666666666
303,442.5,1488.75,-435,146.25,1376.25,1815,1785,1642.5,917.9166666666666
304,363.75,1398.75,-506.25,26.25,1308.75,1740,1695,1548.75,841.6666666666666
305,270,1222.5,-555,-116.25,1132.5,1526.25,1485,1361.25,702.9166666666666
306,138.75,978.75,-525,-221.25,900,1226.25,1196.25,1106.25,533.3333333333334
307,18.75,757.5,-487.5,-348.75,600,888.75,896.25,862.5,354.1666666666667
308,-63.75,555,-521.25,-555,228.75,510,581.25,626.25,151.25
309,-131.25,378.75,-562.5,-738.75,-97.5,191.25,311.25,416.25,-25.833333333333332
310,-180,243.75,-551.25,-795,-262.5,0,127.5,255,-129.16666666666666
311,-195,127.5,-495,-727.5,-277.5,-75,18.75,131.25,-165.83333333333334
312,-198.75,22.5,-465,-645,-251.25,-105,-52.5,37.5,-184.16666666666666
313,-183.75,-15,-438.75,-555,-206.25,-93.75,-67.5,3.75,-172.91666666666666
314,-157.5,-3.75,-393.75,-465,-153.75,-56.25,-41.25,15,-139.58333333333334
315,-138.75,-7.5,-352.5,-401.25,-135,-45,-33.75,15,-122.08333333333333
316,-127.5,-26.25,-307.5,-352.5,-138.75,-56.25,-37.5,7.5,-115.41666666666667
317,-108.75,-37.5,-251.25,-281.25,-116.25,-45,-30,15,-95.0
318,-75,-18.75,-195,-191.25,-67.5,-15,-7.5,33.75,-59.583333333333336
319,-33.75,15,-142.5,-112.5,-18.75,18.75,22.5,60,-21.25
320,-7.5,18.75,-101.25,-48.75,18.75,37.5,33.75,71.25,2.5
321,-7.5,0,-67.5,0,41.25,45,30,63.75,11.666666666666666
322,0,-11.25,-26.25,37.5,60,52.5,37.5,63.75,23.75
323,15,-11.25,3.75,67.5,75,60,37.5,63.75,34.583333333333336
324,7.5,-18.75,26.25,71.25,63.75,45,26.25,52.5,30.416666666666668
325,-11.25,-45,33.75,71.25,48.75,26.25,3.75,30,17.5
326,-15,-60,41.25,78.75,48.75,18.75,-7.5,15,13.333333333333334
327,-3.75,-48.75,48.75,82.5,48.75,11.25,-15,7.5,14.583333333333334
328,0,-41.25,56.25,86.25,45,7.5,-18.75,7.5,15.833333333333334
329,0,-56.25,56.25,86.25,33.75,-3.75,-30,-3.75,9.166666666666666
330,-3.75,-82.5,63.75,86.25,30,-11.25,-33.75,-11.25,4.166666666666667
331,7.5,-90,67.5,93.75,33.75,-11.25,-30,-7.5,7.083333333333333
332,15,-93.75,67.5,97.5,30,-11.25,-30,-3.75,7.916666666666667
333,11.25,-97.5,67.5,97.5,26.25,-11.25,-37.5,-3.75,5.833333333333333
334,11.25,-93.75,67.5,97.5,22.5,-18.75,-41.25,-7.5,4.166666666666667
335,7.5,-97.5,67.5,97.5,18.75,-22.5,-45,-11.25,1.6666666666666667
336,0,-101.25,71.25,97.5,15,-26.25,-48.75,-15,-0.8333333333333334
337,-3.75,-97.5,71.25,93.75,7.5,-33.75,-56.25,-22.5,-4.583333333333333
338,11.25,-82.5,75,93.75,7.5,-30,-52.5,-22.5,0.0
339,11.25,-82.5,75,97.5,11.25,-33.75,-56.25,-26.25,-0.4166666666666667
340,3.75,-86.25,75,97.5,7.5,-33.75,-56.25,-26.25,-2.0833333333333335
341,11.25,-82.5,78.75,105,11.25,-30,-52.5,-22.5,2.0833333333333335
342,22.5,-82.5,82.5,112.5,18.75,-22.5,-48.75,-15,7.5
343,30,-82.5,86.25,116.25,22.5,-22.5,-45,-7.5,10.833333333333334
344,33.75,-90,78.75,112.5,15,-26.25,-48.75,-11.25,7.083333333333333
345,33.75,-105,75,101.25,3.75,-33.75,-52.5,-15,0.8333333333333334
346,33.75,-108.75,71.25,101.25,3.75,-30,-52.5,-15,0.4166666666666667
347,26.25,-101.25,78.75,112.5,18.75,-22.5,-45,-11.25,6.25
348,22.5,-97.5,82.5,112.5,18.75,-22.5,-45,-11.25,6.666666666666667
349,22.5,-93.75,75,108.75,11.25,-30,-52.5,-18.75,2.5
350,22.5,-90,71.25,105,3.75,-33.75,-56.25,-26.25,-0.4166666666666667
351,15,-93.75,75,108.75,11.25,-30,-52.5,-22.5,1.25
352,18.75,-90,86.25,116.25,18.75,-26.25,-45,-18.75,6.666666666666667
353,33.75,-82.5,86.25,120,22.5,-22.5,-41.25,-11.25,11.666666666666666
354,41.25,-75,86.25,127.5,30,-11.25,-33.75,-3.75,17.916666666666668
355,45,-78.75,93.75,142.5,37.5,0,-22.5,7.5,25.0
356,52.5,-82.5,90,146.25,45,3.75,-18.75,15,27.916666666666668
357,60,-82.5,75,131.25,30,-7.5,-26.25,3.75,20.416666666666668
358,60,-86.25,78.75,135,33.75,-7.5,-26.25,3.75,21.25
359,56.25,-86.25,82.5,142.5,45,0,-18.75,11.25,25.833333333333332
360,48.75,-82.5,86.25,142.5,45,3.75,-15,18.75,27.5
361,33.75,-86.25,86.25,138.75,37.5,3.75,-18.75,11.25,22.916666666666668
362,26.25,-90,78.75,135,33.75,0,-30,0,17.083333333333332
363,37.5,-75,82.5,138.75,37.5,-3.75,-30,0,20.833333333333332
364,60,-52.5,86.25,146.25,41.25,3.75,-18.75,7.5,30.416666666666668
365,56.25,-48.75,90,153.75,52.5,11.25,-11.25,15,35.416666666666664
366,56.25,-48.75,93.75,161.25,60,18.75,-7.5,18.75,39.166666666666664
367,63.75,-56.25,90,168.75,63.75,26.25,0,26.25,42.5
368,60,-78.75,86.25,168.75,63.75,26.25,0,26.25,39.166666666666664
369,63.75,-86.25,78.75,157.5,48.75,18.75,-7.5,22.5,32.916666666666664
370,67.5,-71.25,86.25,161.25,52.5,26.25,0,30,39.166666666666664
371,78.75,-56.25,86.25,172.5,67.5,33.75,7.5,33.75,47.083333333333336
372,71.25,-75,86.25,172.5,71.25,33.75,3.75,30,43.75
373,60,-78.75,78.75,161.25,60,26.25,-3.75,18.75,35.833333333333336
374,67.5,-56.25,82.5,165,67.5,30,0,22.5,42.083333333333336
375,67.5,-48.75,86.25,176.25,71.25,33.75,3.75,26.25,46.25
376,71.25,-48.75,82.5,176.25,75,33.75,3.75,26.25,46.666666666666664
377,78.75,-45,86.25,183.75,82.5,45,11.25,33.75,52.916666666666664
378,93.75,-26.25,93.75,195,93.75,56.25,26.25,45,64.16666666666667
379,108.75,-15,97.5,206.25,105,63.75,37.5,56.25,73.33333333333333
380,112.5,-26.25,93.75,206.25,101.25,67.5,41.25,63.75,73.33333333333333
381,105,-41.25,86.25,202.5,97.5,63.75,37.5,60,67.91666666666667
382,101.25,-41.25,82.5,198.75,93.75,60,33.75,60,65.41666666666667
383,108.75,-37.5,78.75,198.75,97.5,60,33.75,56.25,66.25
384,120,-30,82.5,202.5,97.5,63.75,37.5,60,70.41666666666667
385,123.75,-18.75,90,213.75,108.75,71.25,41.25,63.75,77.08333333333333
386,123.75,-11.25,86.25,210,108.75,67.5,41.25,60,76.25
387,112.5,-18.75,93.75,213.75,112.5,71.25,41.25,60,76.25
388,105,-18.75,97.5,221.25,120,75,45,60,78.33333333333333
389,116.25,-3.75,93.75,217.5,120,75,45,63.75,80.83333333333333
390,127.5,-3.75,90,221.25,120,82.5,52.5,67.5,84.16666666666667
391,142.5,0,97.5,240,135,97.5,67.5,82.5,95.83333333333333
392,146.25,-11.25,90,232.5,131.25,93.75,67.5,86.25,92.91666666666667
393,146.25,-22.5,86.25,225,127.5,93.75,63.75,82.5,89.16666666666667
394,142.5,-22.5,90,232.5,138.75,101.25,71.25,90,93.75
395,142.5,-15,90,240,142.5,105,78.75,93.75,97.5
396,153.75,-7.5,86.25,236.25,138.75,105,75,90,97.5
397,150,-3.75,78.75,221.25,120,93.75,67.5,82.5,90.0
398,142.5,3.75,75,213.75,120,93.75,67.5,82.5,88.75
399,138.75,11.25,82.5,225,131.25,97.5,71.25,86.25,93.75
400,146.25,18.75,90,236.25,138.75,101.25,75,86.25,99.16666666666667
401,146.25,18.75,93.75,240,135,105,78.75,86.25,100.41666666666667
402,153.75,22.5,97.5,240,138.75,108.75,82.5,93.75,104.16666666666667
403,172.5,26.25,93.75,247.5,146.25,112.5,86.25,101.25,109.58333333333333
404,172.5,18.75,90,247.5,146.25,112.5,86.25,105,108.75
405,165,18.75,97.5,255,153.75,123.75,101.25,116.25,114.58333333333333
406,168.75,15,90,247.5,146.25,120,101.25,120,112.08333333333333
407,172.5,3.75,86.25,243.75,146.25,116.25,97.5,116.25,109.16666666666667
408,176.25,15,90,240,146.25,120,97.5,116.25,111.25
409,161.25,26.25,97.5,243.75,146.25,123.75,101.25,123.75,113.75
410,161.25,33.75,86.25,232.5,142.5,116.25,97.5,116.25,109.58333333333333
411,176.25,33.75,78.75,217.5,131.25,108.75,90,108.75,105.0
412,172.5,33.75,86.25,217.5,120,105,86.25,105,102.91666666666667
413,180,45,93.75,236.25,131.25,112.5,93.75,108.75,111.25
414,202.5,48.75,93.75,236.25,135,112.5,93.75,112.5,115.0
415,217.5,41.25,90,236.25,131.25,108.75,93.75,112.5,114.58333333333333
416,213.75,30,93.75,240,135,112.5,97.5,120,115.83333333333333
417,198.75,15,86.25,232.5,127.5,105,90,116.25,107.91666666666667
418,198.75,22.5,93.75,232.5,127.5,105,93.75,120,110.41666666666667
419,195,37.5,101.25,232.5,131.25,108.75,97.5,127.5,114.58333333333333
420,191.25,45,97.5,228.75,123.75,105,93.75,123.75,112.08333333333333
421,183.75,33.75,90,217.5,112.5,93.75,86.25,116.25,103.75
422,176.25,30,86.25,202.5,101.25,86.25,75,105,95.83333333333333
423,172.5,41.25,90,206.25,101.25,82.5,71.25,97.5,95.83333333333333
424,172.5,48.75,101.25,213.75,108.75,82.5,75,101.25,100.41666666666667
425,161.25,45,105,221.25,108.75,82.5,71.25,101.25,99.58333333333333
426,172.5,45,108.75,213.75,105,82.5,75,101.25,100.41666666666667
427,180,41.25,108.75,217.5,101.25,86.25,78.75,108.75,102.5
428,172.5,33.75,105,217.5,105,78.75,75,105,99.16666666666667
429,161.25,22.5,101.25,210,97.5,67.5,63.75,93.75,90.83333333333333
430,172.5,22.5,108.75,210,93.75,71.25,67.5,97.5,93.75
431,172.5,22.5,116.25,213.75,97.5,71.25,67.5,97.5,95.41666666666667
432,168.75,30,120,210,93.75,71.25,63.75,97.5,95.0
433,157.5,26.25,120,206.25,86.25,60,56.25,86.25,88.75
434,131.25,11.25,120,198.75,78.75,52.5,48.75,75,79.58333333333333
435,123.75,15,120,191.25,75,45,41.25,67.5,75.41666666666667
436,127.5,15,131.25,202.5,82.5,48.75,41.25,67.5,79.58333333333333
437,131.25,7.5,135,202.5,78.75,48.75,41.25,63.75,78.75
438,123.75,0,135,195,67.5,33.75,30,56.25,71.25
439,123.75,-7.5,142.5,202.5,71.25,37.5,30,60,73.33333333333333
440,123.75,-22.5,142.5,206.25,75,37.5,26.25,60,72.08333333333333
441,112.5,-37.5,138.75,198.75,67.5,33.75,22.5,52.5,65.41666666666667
442,112.5,-41.25,142.5,191.25,60,26.25,18.75,45,61.666666666666664
443,108.75,-33.75,142.5,191.25,60,26.25,15,45,61.666666666666664
444,93.75,-30,142.5,183.75,56.25,18.75,11.25,41.25,57.5
445,75,-41.25,138.75,168.75,45,7.5,0,30,47.083333333333336
446,63.75,-52.5,135,157.5,30,0,-11.25,15,37.5
447,60,-48.75,138.75,157.5,30,-3.75,-15,11.25,36.666666666666664
448,60,-41.25,146.25,157.5,33.75,-3.75,-15,11.25,38.75
449,60,-45,142.5,157.5,33.75,-7.5,-18.75,3.75,36.25
450,56.25,-52.5,138.75,157.5,33.75,-11.25,-22.5,0,33.333333333333336
451,75,-45,142.5,165,37.5,-7.5,-18.75,7.5,39.583333333333336
452,93.75,-52.5,142.5,157.5,30,-11.25,-15,7.5,39.166666666666664
453,78.75,-75,138.75,146.25,22.5,-18.75,-22.5,3.75,30.416666666666668
454,45,-86.25,135,146.25,22.5,-18.75,-30,0,23.75
455,26.25,-86.25,138.75,146.25,26.25,-15,-30,0,22.916666666666668
456,22.5,-90,138.75,142.5,22.5,-22.5,-33.75,-7.5,19.166666666666668
457,15,-101.25,135,131.25,11.25,-30,-41.25,-15,11.666666666666666
458,7.5,-105,127.5,120,3.75,-41.25,-52.5,-30,3.3333333333333335
459,3.75,-90,131.25,116.25,0,-41.25,-56.25,-30,3.75
460,3.75,-82.5,131.25,116.25,0,-45,-56.25,-33.75,3.75
461,-11.25,-108.75,127.5,108.75,-7.5,-52.5,-63.75,-41.25,-5.416666666666667
462,-3.75,-112.5,131.25,112.5,-3.75,-52.5,-63.75,-41.25,-3.75
463,11.25,-105,135,120,3.75,-41.25,-56.25,-30,4.166666666666667
464,18.75,-108.75,123.75,112.5,-3.75,-48.75,-56.25,-33.75,0.4166666666666667
465,22.5,-116.25,116.25,101.25,-11.25,-52.5,-63.75,-37.5,-4.583333333333333
466,15,-112.5,120,101.25,-11.25,-48.75,-63.75,-33.75,-3.75
467,0,-116.25,123.75,101.25,-11.25,-52.5,-63.75,-33.75,-5.833333333333333
468,-18.75,-131.25,116.25,93.75,-15,-60,-67.5,-41.25,-13.75
469,-26.25,-138.75,108.75,78.75,-26.25,-67.5,-75,-52.5,-22.083333333333332
470,-26.25,-135,108.75,71.25,-33.75,-75,-82.5,-56.25,-25.416666666666668
471,-22.5,-123.75,108.75,71.25,-37.5,-75,-86.25,-63.75,-25.416666666666668
472,-18.75,-120,112.5,75,-33.75,-75,-82.5,-60,-22.5
473,-26.25,-123.75,112.5,71.25,-37.5,-75,-86.25,-63.75,-25.416666666666668
474,-22.5,-127.5,112.5,75,-33.75,-75,-82.5,-60,-23.75
475,-7.5,-127.5,108.75,78.75,-33.75,-75,-82.5,-56.25,-21.666666666666668
476,3.75,-127.5,105,78.75,-30,-71.25,-78.75,-52.5,-19.166666666666668
477,-3.75,-138.75,105,75,-33.75,-71.25,-78.75,-52.5,-22.083333333333332
478,-18.75,-146.25,105,71.25,-37.5,-75,-78.75,-52.5,-25.833333333333332
479,-22.5,-146.25,105,71.25,-33.75,-75,-82.5,-52.5,-26.25
480,-33.75,-153.75,101.25,63.75,-41.25,-78.75,-86.25,-56.25,-31.666666666666668
481,-41.25,-153.75,105,52.5,-56.25,-82.5,-90,-63.75,-36.666666666666664
482,-48.75,-150,97.5,52.5,-56.25,-90,-93.75,-71.25,-40.0
483,-48.75,-142.5,90,48.75,-52.5,-90,-101.25,-75,-41.25
484,-26.25,-116.25,97.5,56.25,-48.75,-82.5,-97.5,-71.25,-32.083333333333336
485,-18.75,-105,101.25,63.75,-41.25,-82.5,-97.5,-71.25,-27.916666666666668
486,-22.5,-120,101.25,67.5,-41.25,-82.5,-90,-67.5,-28.333333333333332
487,-7.5,-123.75,105,78.75,-30,-67.5,-78.75,-56.25,-20.0
488,-7.5,-138.75,101.25,75,-30,-67.5,-78.75,-48.75,-21.666666666666668
489,-15,-157.5,97.5,71.25,-33.75,-71.25,-82.5,-56.25,-27.5
490,-15,-150,101.25,71.25,-33.75,-67.5,-78.75,-52.5,-25.0
491,-18.75,-142.5,101.25,75,-26.25,-63.75,-75,-48.75,-22.083333333333332
492,-22.5,-142.5,101.25,75,-26.25,-60,-75,-48.75,-22.083333333333332
493,-18.75,-138.75,101.25,75,-26.25,-63.75,-78.75,-56.25,-22.916666666666668
494,-26.25,-142.5,97.5,63.75,-37.5,-75,-86.25,-63.75,-30.0
495,-41.25,-146.25,97.5,60,-45,-78.75,-93.75,-67.5,-35.0
496,-37.5,-135,101.25,67.5,-37.5,-75,-90,-67.5,-30.416666666666668
497,-30,-123.75,105,71.25,-26.25,-71.25,-86.25,-63.75,-25.0
498,-15,-112.5,112.5,78.75,-18.75,-60,-75,-48.75,-15.416666666666666
499,-3.75,-112.5,116.25,93.75,-11.25,-48.75,-63.75,-37.5,-7.5
500,-7.5,-123.75,112.5,97.5,-7.5,-45,-60,-33.75,-7.5
501,-18.75,-135,108.75,90,-11.25,-48.75,-63.75,-37.5,-12.916666666666666
502,-18.75,-135,105,86.25,-15,-48.75,-63.75,-37.5,-14.166666666666666
503,-15,-131.25,105,86.25,-11.25,-48.75,-67.5,-41.25,-13.75
504,-11.25,-135,101.25,86.25,-15,-52.5,-71.25,-45,-15.833333333333334
505,-11.25,-138.75,97.5,82.5,-15,-56.25,-71.25,-45,-17.5
506,-7.5,-127.5,90,71.25,-26.25,-60,-78.75,-52.5,-21.25
507,-3.75,-112.5,93.75,71.25,-26.25,-60,-75,-52.5,-18.333333333333332
508,-7.5,-112.5,97.5,75,-26.25,-63.75,-78.75,-56.25,-19.166666666666668
509,-22.5,-120,97.5,78.75,-18.75,-60,-78.75,-56.25,-20.0
510,-33.75,-120,105,90,-7.5,-52.5,-67.5,-45,-14.583333333333334
511,-18.75,-108.75,112.5,97.5,0,-41.25,-56.25,-33.75,-5.416666666666667
512,-7.5,-116.25,105,97.5,-3.75,-41.25,-56.25,-33.75,-6.25
513,-15,-127.5,101.25,97.5,0,-41.25,-60,-33.75,-8.75
514,-26.25,-135,101.25,93.75,0,-41.25,-56.25,-33.75,-10.833333333333334
515,-11.25,-127.5,105,93.75,0,-33.75,-52.5,-26.25,-5.833333333333333
516,0,-116.25,105,97.5,3.75,-30,-48.75,-22.5,-1.25
517,-18.75,-123.75,101.25,90,0,-37.5,-56.25,-30,-8.333333333333334
518,-33.75,-131.25,97.5,82.5,-7.5,-45,-60,-41.25,-15.416666666666666
519,-26.25,-120,97.5,82.5,-7.5,-45,-60,-41.25,-13.333333333333334
520,-11.25,-101.25,101.25,86.25,-3.75,-41.25,-56.25,-37.5,-7.083333333333333
521,-7.5,-97.5,101.25,90,0,-37.5,-52.5,-33.75,-4.166666666666667
522,-15,-108.75,101.25,86.25,-7.5,-41.25,-56.25,-37.5,-8.75
523,-11.25,-112.5,101.25,86.25,-7.5,-37.5,-52.5,-30,-7.083333333333333
524,3.75,-108.75,101.25,93.75,3.75,-33.75,-41.25,-22.5,-0.4166666666666667
525,-7.5,-123.75,93.75,86.25,-3.75,-41.25,-52.5,-30,-8.75
526,-15,-131.25,90,75,-15,-41.25,-56.25,-30,-13.75
527,0,-116.25,93.75,75,-11.25,-37.5,-52.5,-26.25,-8.333333333333334
528,7.5,-105,93.75,78.75,-7.5,-37.5,-52.5,-22.5,-5.0
529,7.5,-108.75,90,67.5,-18.75,-45,-56.25,-30,-10.416666666666666
530,7.5,-108.75,86.25,60,-26.25,-48.75,-63.75,-33.75,-14.166666666666666
531,-7.5,-112.5,82.5,60,-15,-52.5,-67.5,-41.25,-17.083333333333332
532,-18.75,-108.75,86.25,67.5,-11.25,-48.75,-63.75,-41.25,-15.416666666666666
533,-18.75,-108.75,86.25,71.25,-11.25,-48.75,-60,-37.5,-14.166666666666666
534,-11.25,-108.75,86.25,75,-7.5,-45,-56.25,-33.75,-11.25
535,-11.25,-116.25,93.75,78.75,-3.75,-37.5,-48.75,-22.5,-7.5
536,0,-116.25,90,82.5,0,-33.75,-45,-18.75,-4.583333333333333
537,7.5,-108.75,86.25,75,-7.5,-41.25,-52.5,-22.5,-7.083333333333333
538,11.25,-108.75,86.25,75,-11.25,-41.25,-52.5,-18.75,-6.666666666666667
539,0,-120,78.75,71.25,-11.25,-41.25,-52.5,-22.5,-10.833333333333334
540,-15,-127.5,75,71.25,-7.5,-41.25,-52.5,-26.25,-13.75
541,-18.75,-127.5,75,63.75,-15,-48.75,-60,-30,-17.916666666666668
542,-18.75,-112.5,78.75,60,-18.75,-48.75,-60,-33.75,-17.083333333333332
543,-18.75,-101.25,78.75,52.5,-26.25,-52.5,-63.75,-37.5,-18.75
544,-18.75,-108.75,75,52.5,-33.75,-56.25,-63.75,-37.5,-21.25
545,-18.75,-108.75,78.75,56.25,-22.5,-52.5,-60,-33.75,-17.916666666666668
546,-15,-108.75,82.5,60,-15,-48.75,-60,-30,-15.0
547,-11.25,-120,86.25,71.25,-7.5,-41.25,-48.75,-22.5,-10.416666666666666
548,-7.5,-127.5,78.75,67.5,-11.25,-45,-52.5,-18.75,-12.916666666666666
549,-3.75,-127.5,71.25,60,-18.75,-48.75,-56.25,-22.5,-16.25
550,0,-120,71.25,56.25,-18.75,-48.75,-56.25,-22.5,-15.416666666666666
551,0,-108.75,75,56.25,-18.75,-48.75,-56.25,-18.75,-13.333333333333334
552,-3.75,-112.5,71.25,56.25,-18.75,-48.75,-56.25,-22.5,-15.0
553,-11.25,-131.25,63.75,48.75,-26.25,-56.25,-60,-30,-22.5
554,-22.5,-135,60,37.5,-37.5,-63.75,-67.5,-37.5,-29.583333333333332
555,-30,-123.75,60,33.75,-37.5,-67.5,-71.25,-37.5,-30.416666666666668
556,-30,-123.75,60,33.75,-37.5,-71.25,-75,-45,-32.083333333333336
557,-26.25,-127.5,63.75,37.5,-41.25,-71.25,-71.25,-45,-31.25
558,-18.75,-120,67.5,41.25,-37.5,-67.5,-67.5,-41.25,-27.083333333333332
559,-7.5,-112.5,71.25,52.5,-22.5,-56.25,-56.25,-26.25,-17.5
560,3.75,-120,67.5,56.25,-18.75,-52.5,-52.5,-22.5,-15.416666666666666
561,-3.75,-131.25,63.75,45,-26.25,-63.75,-63.75,-33.75,-23.75
562,-15,-138.75,60,37.5,-33.75,-60,-67.5,-30,-27.5
563,-22.5,-142.5,60,37.5,-37.5,-60,-67.5,-30,-29.166666666666668
564,-30,-142.5,60,41.25,-33.75,-63.75,-63.75,-30,-29.166666666666668
565,-37.5,-138.75,56.25,30,-37.5,-71.25,-71.25,-37.5,-34.166666666666664
566,-33.75,-131.25,56.25,22.5,-45,-75,-75,-45,-36.25
567,-26.25,-127.5,52.5,15,-52.5,-82.5,-82.5,-48.75,-39.166666666666664
568,-22.5,-116.25,56.25,26.25,-45,-78.75,-78.75,-45,-33.75
569,-22.5,-116.25,63.75,26.25,-41.25,-75,-75,-45,-31.666666666666668
570,-30,-123.75,63.75,26.25,-41.25,-75,-75,-41.25,-32.916666666666664
571,-18.75,-123.75,67.5,33.75,-37.5,-71.25,-71.25,-33.75,-28.333333333333332
572,-11.25,-131.25,67.5,37.5,-37.5,-67.5,-67.5,-26.25,-26.25
573,-18.75,-142.5,60,30,-41.25,-71.25,-71.25,-33.75,-32.083333333333336
574,-22.5,-146.25,52.5,22.5,-48.75,-78.75,-75,-37.5,-37.083333333333336
575,-26.25,-146.25,56.25,26.25,-45,-75,-71.25,-33.75,-35.0
576,-26.25,-142.5,56.25,22.5,-48.75,-78.75,-75,-37.5,-36.666666666666664
577,-18.75,-135,52.5,18.75,-52.5,-78.75,-78.75,-41.25,-37.083333333333336
578,-22.5,-131.25,48.75,7.5,-60,-86.25,-86.25,-48.75,-42.083333333333336
579,-30,-123.75,45,0,-63.75,-90,-90,-56.25,-45.416666666666664
580,-33.75,-120,52.5,3.75,-60,-86.25,-86.25,-52.5,-42.5
581,-26.25,-120,52.5,7.5,-60,-90,-86.25,-52.5,-41.666666666666664
582,-18.75,-120,60,15,-52.5,-82.5,-78.75,-45,-35.833333333333336
583,-18.75,-131.25,63.75,26.25,-45,-75,-71.25,-37.5,-32.083333333333336
584,-18.75,-146.25,56.25,26.25,-45,-75,-71.25,-37.5,-34.583333333333336
585,-30,-161.25,45,15,-52.5,-86.25,-78.75,-41.25,-43.333333333333336
586,-33.75,-161.25,45,15,-52.5,-82.5,-78.75,-41.25,-43.333333333333336
587,-30,-146.25,56.25,26.25,-45,-78.75,-71.25,-33.75,-35.833333333333336
588,-11.25,-127.5,63.75,30,-41.25,-75,-67.5,-30,-28.75
589,-11.25,-123.75,56.25,22.5,-48.75,-78.75,-75,-37.5,-32.916666666666664
590,-26.25,-123.75,56.25,18.75,-52.5,-82.5,-78.75,-41.25,-36.666666666666664
591,-26.25,-105,60,18.75,-52.5,-82.5,-78.75,-45,-34.583333333333336
592,-15,-90,75,30,-41.25,-71.25,-67.5,-37.5,-24.166666666666668
593,-11.25,-82.5,86.25,41.25,-30,-63.75,-60,-30,-16.666666666666668
594,-11.25,-78.75,86.25,45,-30,-67.5,-63.75,-33.75,-17.083333333333332
595,-3.75,-75,97.5,56.25,-18.75,-56.25,-56.25,-22.5,-8.75
596,0,-75,101.25,60,-15,-48.75,-48.75,-11.25,-4.166666666666667
597,-7.5,-82.5,97.5,52.5,-22.5,-52.5,-52.5,-15,-9.166666666666666
598,-18.75,-93.75,101.25,48.75,-26.25,-52.5,-56.25,-18.75,-12.916666666666666
599,-22.5,-97.5,108.75,52.5,-26.25,-52.5,-52.5,-15,-11.666666666666666
600,-11.25,-90,108.75,63.75,-18.75,-48.75,-52.5,-15,-7.083333333333333
601,-11.25,-90,105,67.5,-15,-48.75,-52.5,-18.75,-7.083333333333333
602,-18.75,-90,105,56.25,-22.5,-56.25,-60,-26.25,-12.5
603,-18.75,-90,108.75,52.5,-30,-60,-63.75,-30,-14.583333333333334
604,-18.75,-78.75,116.25,60,-22.5,-52.5,-56.25,-26.25,-8.75
605,-15,-63.75,123.75,71.25,-7.5,-45,-48.75,-18.75,-0.4166666666666667
606,-7.5,-48.75,131.25,82.5,3.75,-33.75,-37.5,-7.5,9.166666666666666
607,7.5,-30,138.75,90,7.5,-22.5,-26.25,7.5,19.166666666666668
608,11.25,-30,138.75,90,7.5,-18.75,-18.75,18.75,22.083333333333332
609,-3.75,-45,123.75,82.5,11.25,-22.5,-18.75,15,15.833333333333334
610,-11.25,-48.75,112.5,75,3.75,-22.5,-18.75,18.75,12.083333333333334
611,-7.5,-48.75,105,71.25,-7.5,-22.5,-18.75,18.75,10.0
612,15,-41.25,97.5,71.25,3.75,-18.75,-15,22.5,15.0
613,30,-41.25,75,60,0,-26.25,-22.5,15,10.0
614,30,-45,60,52.5,-7.5,-30,-26.25,7.5,4.583333333333333
615,33.75,-33.75,52.5,48.75,-11.25,-37.5,-33.75,0,2.0833333333333335
616,45,-18.75,52.5,45,-15,-41.25,-37.5,-3.75,2.9166666666666665
617,45,-15,52.5,48.75,-11.25,-45,-37.5,-3.75,3.75
618,33.75,-22.5,45,45,-18.75,-45,-37.5,-3.75,-0.4166666666666667
619,30,-41.25,41.25,41.25,-18.75,-45,-37.5,3.75,-2.9166666666666665
620,33.75,-71.25,45,45,-15,-41.25,-30,7.5,-2.9166666666666665
621,37.5,-86.25,37.5,41.25,-22.5,-45,-33.75,7.5,-7.083333333333333
622,33.75,-93.75,26.25,30,-30,-52.5,-37.5,3.75,-13.333333333333334
623,37.5,-93.75,26.25,22.5,-33.75,-56.25,-45,0,-15.833333333333334
624,45,-90,30,18.75,-37.5,-56.25,-45,-3.75,-15.416666666666666
625,30,-97.5,30,15,-37.5,-60,-48.75,-11.25,-20.0
626,15,-108.75,33.75,15,-41.25,-67.5,-56.25,-18.75,-25.416666666666668
627,7.5,-116.25,30,3.75,-56.25,-78.75,-67.5,-33.75,-34.583333333333336
628,11.25,-97.5,37.5,11.25,-48.75,-71.25,-63.75,-30,-27.916666666666668
629,15,-78.75,45,22.5,-33.75,-60,-52.5,-18.75,-17.916666666666668
630,3.75,-82.5,45,22.5,-37.5,-67.5,-60,-26.25,-22.5
631,0,-97.5,48.75,22.5,-37.5,-67.5,-60,-26.25,-24.166666666666668
632,11.25,-101.25,41.25,22.5,-41.25,-67.5,-60,-22.5,-24.166666666666668
633,3.75,-112.5,33.75,11.25,-52.5,-75,-63.75,-26.25,-31.25
634,-15,-127.5,33.75,11.25,-52.5,-78.75,-67.5,-30,-36.25
635,-15,-135,37.5,0,-60,-82.5,-71.25,-33.75,-40.0
636,-18.75,-150,37.5,-7.5,-75,-90,-82.5,-41.25,-47.5
637,-33.75,-165,30,-7.5,-71.25,-97.5,-90,-48.75,-53.75
638,-37.5,-157.5,26.25,-7.5,-71.25,-101.25,-93.75,-56.25,-55.416666666666664
639,-33.75,-146.25,22.5,-15,-78.75,-108.75,-97.5,-63.75,-57.916666666666664
640,-37.5,-150,22.5,-22.5,-86.25,-112.5,-105,-71.25,-62.5
641,-30,-142.5,26.25,-18.75,-82.5,-112.5,-108.75,-71.25,-60.0
642,-22.5,-135,26.25,-15,-82.5,-112.5,-108.75,-71.25,-57.916666666666664
643,-18.75,-138.75,30,-11.25,-78.75,-108.75,-101.25,-63.75,-54.583333333333336
644,-22.5,-146.25,33.75,-7.5,-75,-105,-97.5,-56.25,-52.916666666666664
645,-30,-161.25,30,-11.25,-75,-105,-101.25,-56.25,-56.666666666666664
646,-33.75,-168.75,26.25,-11.25,-78.75,-105,-97.5,-56.25,-58.333333333333336
647,-30,-165,26.25,-15,-78.75,-101.25,-93.75,-48.75,-56.25
648,-37.5,-168.75,26.25,-18.75,-86.25,-105,-93.75,-48.75,-59.166666666666664
649,-45,-176.25,22.5,-22.5,-86.25,-108.75,-101.25,-56.25,-63.75
650,-52.5,-172.5,18.75,-26.25,-86.25,-112.5,-105,-63.75,-66.66666666666667
651,-52.5,-157.5,26.25,-26.25,-82.5,-112.5,-105,-67.5,-64.16666666666667
652,-48.75,-157.5,30,-22.5,-78.75,-108.75,-105,-67.5,-62.083333333333336
653,-52.5,-165,30,-22.5,-82.5,-112.5,-105,-67.5,-64.16666666666667
654,-45,-153.75,30,-22.5,-82.5,-108.75,-101.25,-63.75,-60.833333333333336
655,-33.75,-146.25,30,-15,-78.75,-105,-93.75,-56.25,-55.416666666666664
656,-37.5,-161.25,37.5,-7.5,-71.25,-101.25,-90,-48.75,-53.333333333333336
657,-37.5,-176.25,30,-11.25,-71.25,-101.25,-90,-52.5,-56.666666666666664
658,-37.5,-176.25,22.5,-18.75,-75,-101.25,-93.75,-56.25,-59.583333333333336
659,-41.25,-168.75,26.25,-15,-75,-101.25,-93.75,-52.5,-57.916666666666664
660,-37.5,-165,22.5,-18.75,-75,-101.25,-93.75,-56.25,-58.333333333333336
661,-33.75,-165,18.75,-18.75,-78.75,-105,-97.5,-60,-60.0
662,-33.75,-165,26.25,-15,-86.25,-112.5,-108.75,-67.5,-62.5
663,-33.75,-176.25,45,-3.75,-86.25,-123.75,-123.75,-86.25,-65.41666666666667
664,-33.75,-195,86.25,41.25,-67.5,-127.5,-135,-105,-59.583333333333336
665,-45,-225,138.75,90,-60,-142.5,-157.5,-131.25,-59.166666666666664
666,-37.5,-247.5,195,138.75,-56.25,-165,-187.5,-161.25,-57.916666666666664
667,-18.75,-262.5,247.5,180,-60,-183.75,-213.75,-183.75,-55.0
668,7.5,-258.75,296.25,228.75,-45,-187.5,-217.5,-183.75,-40.0
669,30,-236.25,333.75,288.75,-7.5,-165,-198.75,-168.75,-13.75
670,41.25,-191.25,378.75,367.5,52.5,-112.5,-153.75,-131.25,27.916666666666668
671,56.25,-150,420,446.25,116.25,-56.25,-101.25,-90,71.25
672,93.75,-101.25,442.5,506.25,183.75,-3.75,-52.5,-45,113.75
673,142.5,-33.75,457.5,562.5,251.25,63.75,11.25,15,163.33333333333334
674,183.75,41.25,472.5,611.25,311.25,131.25,78.75,78.75,212.08333333333334
675,255,135,476.25,671.25,390,221.25,168.75,165,275.8333333333333
676,341.25,251.25,457.5,727.5,491.25,345,292.5,281.25,354.1666666666667
677,401.25,375,416.25,753.75,588.75,472.5,423.75,405,426.25
678,442.5,498.75,337.5,746.25,675,592.5,558.75,536.25,487.5
679,506.25,652.5,277.5,765,798.75,761.25,731.25,705,577.5
680,555,840,266.25,817.5,948.75,948.75,922.5,885,687.0833333333334
681,570,1050,202.5,772.5,1038.75,1113.75,1102.5,1068.75,768.75
682,592.5,1293.75,52.5,637.5,1087.5,1267.5,1301.25,1278.75,834.5833333333334
683,622.5,1473.75,-101.25,498.75,1132.5,1417.5,1481.25,1466.25,887.9166666666666
684,656.25,1545,-262.5,315,1143.75,1518.75,1605,1586.25,900.8333333333334
685,648.75,1597.5,-397.5,161.25,1166.25,1616.25,1713.75,1683.75,910.0
686,573.75,1605,-438.75,120,1230,1706.25,1788.75,1732.5,924.1666666666666
687,480,1537.5,-420,120,1286.25,1758.75,1807.5,1706.25,919.5833333333334
688,397.5,1466.25,-435,75,1316.25,1781.25,1800,1668.75,896.6666666666666
689,311.25,1380,-506.25,-37.5,1260,1721.25,1725,1586.25,826.6666666666666
690,221.25,1215,-551.25,-165,1106.25,1530,1533.75,1413.75,700.4166666666666
691,112.5,993.75,-521.25,-247.5,900,1252.5,1263.75,1170,547.0833333333334
692,3.75,765,-498.75,-360,618.75,922.5,960,918.75,370.0
693,-75,543.75,-528.75,-551.25,262.5,547.5,641.25,671.25,167.91666666666666
694,-142.5,363.75,-551.25,-720,-60,221.25,363.75,453.75,-7.916666666666667
695,-191.25,240,-532.5,-776.25,-228.75,26.25,176.25,292.5,-110.41666666666667
696,-210,131.25,-480,-712.5,-251.25,-48.75,67.5,168.75,-148.33333333333334
697,-206.25,37.5,-446.25,-630,-221.25,-75,-3.75,71.25,-163.75
698,-195,-11.25,-423.75,-540,-172.5,-71.25,-26.25,30,-156.66666666666666
699,-176.25,-15,-378.75,-446.25,-123.75,-37.5,-7.5,37.5,-127.5
700,-153.75,-18.75,-333.75,-382.5,-105,-26.25,3.75,37.5,-108.75
701,-135,-33.75,-285,-326.25,-101.25,-30,0,33.75,-97.5
702,-108.75,-45,-240,-258.75,-86.25,-30,0,33.75,-81.66666666666667
703,-67.5,-22.5,-183.75,-172.5,-37.5,0,26.25,56.25,-44.583333333333336
704,-30,7.5,-135,-93.75,11.25,33.75,52.5,82.5,-7.916666666666667
705,-15,7.5,-97.5,-33.75,52.5,56.25,67.5,90,14.166666666666666
706,-3.75,-3.75,-52.5,18.75,78.75,71.25,75,93.75,30.833333333333332
707,7.5,-11.25,-15,56.25,93.75,75,75,93.75,41.666666666666664
708,-3.75,-30,7.5,71.25,97.5,71.25,63.75,78.75,39.583333333333336
709,-7.5,-45,18.75,78.75,90,56.25,48.75,60,33.333333333333336
710,-15,-63.75,22.5,71.25,75,37.5,30,41.25,22.083333333333332
711,-18.75,-71.25,33.75,75,67.5,30,18.75,26.25,17.916666666666668
712,-15,-60,52.5,90,71.25,26.25,15,26.25,22.916666666666668
713,-15,-60,60,93.75,63.75,18.75,7.5,15,20.416666666666668
714,-11.25,-71.25,56.25,93.75,56.25,7.5,0,11.25,15.833333333333334
715,0,-75,63.75,105,63.75,7.5,0,18.75,20.416666666666668
716,7.5,-86.25,67.5,108.75,60,3.75,0,18.75,20.0
717,11.25,-97.5,63.75,105,52.5,0,-3.75,15,16.25
718,3.75,-108.75,60,101.25,45,-3.75,-11.25,11.25,10.833333333333334
719,-7.5,-120,63.75,101.25,45,-7.5,-15,3.75,7.083333333333333
720,3.75,-116.25,67.5,97.5,33.75,-11.25,-22.5,0,5.833333333333333
721,3.75,-108.75,71.25,97.5,33.75,-11.25,-22.5,0,7.083333333333333
722,-7.5,-108.75,67.5,97.5,33.75,-15,-26.25,-7.5,3.75
723,-11.25,-105,71.25,97.5,26.25,-22.5,-30,-11.25,1.6666666666666667
724,-3.75,-97.5,67.5,97.5,26.25,-22.5,-33.75,-18.75,1.6666666666666667
725,-3.75,-93.75,67.5,105,30,-22.5,-30,-15,4.166666666666667
726,-3.75,-97.5,71.25,105,26.25,-26.25,-37.5,-18.75,2.0833333333333335
727,7.5,-97.5,78.75,112.5,33.75,-22.5,-33.75,-11.25,7.5
728,18.75,-108.75,78.75,112.5,30,-18.75,-30,-3.75,8.75
729,18.75,-127.5,75,108.75,30,-18.75,-26.25,-3.75,6.25
730,22.5,-120,75,112.5,33.75,-15,-22.5,0,9.583333333333334
731,18.75,-116.25,75,116.25,41.25,-7.5,-22.5,3.75,12.083333333333334
732,11.25,-120,75,116.25,41.25,-11.25,-22.5,3.75,10.416666666666666
733,26.25,-108.75,78.75,116.25,41.25,-11.25,-18.75,7.5,14.583333333333334
734,37.5,-105,71.25,108.75,37.5,-18.75,-26.25,-3.75,11.25
735,26.25,-97.5,75,108.75,33.75,-15,-26.25,-7.5,10.833333333333334
736,22.5,-86.25,75,112.5,33.75,-15,-26.25,-3.75,12.5
737,30,-78.75,78.75,120,41.25,-7.5,-18.75,0,18.333333333333332
738,26.25,-78.75,78.75,123.75,41.25,-11.25,-18.75,0,17.916666666666668
739,30,-75,86.25,138.75,56.25,3.75,-7.5,11.25,27.083333333333332
740,52.5,-75,97.5,150,71.25,15,7.5,26.25,38.333333333333336
741,67.5,-78.75,93.75,146.25,63.75,15,7.5,26.25,37.916666666666664
742,48.75,-93.75,86.25,138.75,63.75,11.25,3.75,22.5,31.25
743,30,-108.75,82.5,138.75,60,7.5,0,18.75,25.416666666666668
744,37.5,-108.75,82.5,138.75,60,7.5,0,18.75,26.25
745,45,-97.5,82.5,142.5,63.75,11.25,0,18.75,29.583333333333332
746,37.5,-97.5,86.25,142.5,63.75,15,0,18.75,29.583333333333332
747,33.75,-90,86.25,138.75,60,11.25,-3.75,11.25,27.5
748,33.75,-75,90,146.25,67.5,15,3.75,15,32.916666666666664
749,26.25,-86.25,90,142.5,63.75,11.25,0,11.25,28.75
750,30,-90,86.25,146.25,67.5,15,3.75,15,30.416666666666668
751,52.5,-75,93.75,161.25,82.5,26.25,15,30,42.916666666666664
752,67.5,-78.75,90,165,86.25,30,22.5,37.5,46.666666666666664
753,67.5,-82.5,90,168.75,90,33.75,26.25,41.25,48.333333333333336
754,71.25,-75,93.75,172.5,93.75,41.25,30,48.75,52.916666666666664
755,71.25,-82.5,93.75,172.5,93.75,41.25,26.25,45,51.25
756,75,-82.5,97.5,180,97.5,41.25,30,45,53.75
757,67.5,-75,97.5,176.25,97.5,41.25,30,45,53.333333333333336
758,63.75,-75,90,157.5,78.75,33.75,22.5,37.5,45.416666666666664
759,63.75,-71.25,90,157.5,82.5,33.75,22.5,33.75,45.833333333333336
760,75,-56.25,97.5,176.25,101.25,45,30,41.25,56.666666666666664
761,75,-48.75,101.25,183.75,105,48.75,33.75,45,60.416666666666664
762,75,-45,105,191.25,108.75,52.5,41.25,52.5,64.58333333333333
763,86.25,-45,108.75,202.5,120,63.75,48.75,60,71.66666666666667
764,93.75,-56.25,112.5,210,127.5,71.25,56.25,67.5,75.83333333333333
765,93.75,-63.75,105,198.75,123.75,67.5,48.75,63.75,70.83333333333333
766,90,-60,101.25,195,116.25,60,45,60,67.5
767,93.75,-48.75,101.25,202.5,123.75,67.5,48.75,67.5,72.91666666666667
768,108.75,-37.5,105,210,127.5,75,56.25,75,80.0
769,105,-45,97.5,198.75,116.25,67.5,52.5,71.25,73.75
770,90,-52.5,97.5,198.75,123.75,67.5,52.5,67.5,71.66666666666667
771,90,-45,97.5,198.75,127.5,71.25,56.25,67.5,73.75
772,97.5,-41.25,93.75,202.5,127.5,75,56.25,71.25,75.83333333333333
773,108.75,-30,105,221.25,142.5,86.25,71.25,78.75,87.08333333333333
774,120,-18.75,112.5,228.75,153.75,93.75,78.75,86.25,95.0
775,120,-7.5,112.5,232.5,157.5,101.25,82.5,93.75,99.16666666666667
776,123.75,-7.5,108.75,236.25,157.5,101.25,82.5,101.25,100.41666666666667
777,120,-30,105,232.5,153.75,101.25,78.75,97.5,95.41666666666667
778,123.75,-33.75,105,221.25,146.25,97.5,75,93.75,92.08333333333333
779,131.25,-15,105,221.25,142.5,97.5,78.75,97.5,95.41666666666667
780,131.25,-11.25,105,221.25,138.75,97.5,78.75,101.25,95.83333333333333
781,135,-18.75,101.25,225,146.25,97.5,78.75,97.5,95.83333333333333
782,135,-15,101.25,232.5,157.5,105,86.25,101.25,100.41666666666667
783,138.75,-7.5,105,228.75,157.5,105,90,101.25,102.08333333333333
784,146.25,3.75,105,232.5,161.25,108.75,90,101.25,105.41666666666667
785,150,7.5,101.25,232.5,157.5,105,86.25,101.25,104.58333333333333
786,153.75,11.25,101.25,232.5,157.5,108.75,90,105,106.66666666666667
787,161.25,18.75,101.25,243.75,168.75,116.25,97.5,116.25,113.75
788,157.5,7.5,105,255,176.25,127.5,108.75,127.5,118.33333333333333
789,153.75,-7.5,97.5,243.75,165,120,105,123.75,111.25
790,161.25,-3.75,101.25,243.75,165,120,105,123.75,112.91666666666667
791,168.75,3.75,105,247.5,168.75,123.75,108.75,127.5,117.08333333333333
792,165,0,101.25,243.75,165,120,108.75,131.25,115.0
793,157.5,0,101.25,236.25,157.5,116.25,105,127.5,111.25
794,150,0,105,236.25,157.5,112.5,101.25,123.75,109.58333333333333
795,157.5,15,105,236.25,153.75,112.5,101.25,120,111.25
796,165,26.25,101.25,232.5,153.75,108.75,101.25,120,112.08333333333333
797,168.75,22.5,101.25,232.5,153.75,108.75,97.5,120,111.66666666666667
798,180,26.25,101.25,236.25,153.75,108.75,97.5,123.75,114.16666666666667
799,191.25,33.75,108.75,236.25,150,108.75,105,127.5,117.91666666666667
800,198.75,37.5,108.75,240,146.25,112.5,105,135,120.41666666666667
801,198.75,33.75,108.75,243.75,153.75,116.25,112.5,138.75,122.91666666666667
802,191.25,18.75,101.25,236.25,150,112.5,108.75,135,117.08333333333333
803,183.75,15,105,232.5,146.25,108.75,105,138.75,115.0
804,180,18.75,108.75,236.25,150,112.5,108.75,142.5,117.5
805,176.25,15,101.25,232.5,142.5,108.75,101.25,135,112.5
806,176.25,15,97.5,221.25,131.25,97.5,93.75,127.5,106.66666666666667
807,176.25,26.25,97.5,210,123.75,90,90,123.75,104.16666666666667
808,172.5,37.5,108.75,217.5,123.75,93.75,90,127.5,107.91666666666667
809,168.75,41.25,120,221.25,127.5,93.75,93.75,127.5,110.41666666666667
810,161.25,30,112.5,213.75,120,86.25,86.25,120,103.33333333333333
811,168.75,30,112.5,213.75,120,90,90,123.75,105.41666666666667
812,187.5,33.75,120,221.25,127.5,90,90,127.5,110.83333333333333
813,180,26.25,123.75,225,123.75,86.25,90,127.5,109.16666666666667
814,180,26.25,120,217.5,112.5,82.5,86.25,123.75,105.41666666666667
815,172.5,15,123.75,217.5,112.5,82.5,82.5,120,102.91666666666667
816,157.5,-3.75,127.5,221.25,116.25,78.75,78.75,116.25,99.16666666666667
817,146.25,0,123.75,217.5,112.5,71.25,71.25,108.75,94.58333333333333
818,142.5,3.75,123.75,206.25,97.5,63.75,60,97.5,88.33333333333333
819,138.75,0,123.75,198.75,86.25,52.5,52.5,90,82.5
820,131.25,0,131.25,198.75,86.25,45,48.75,86.25,80.83333333333333
821,112.5,3.75,135,202.5,90,45,45,82.5,79.58333333333333
822,105,7.5,142.5,206.25,90,45,45,78.75,80.0
823,116.25,7.5,150,213.75,97.5,48.75,48.75,82.5,85.0
824,131.25,11.25,161.25,225,108.75,60,56.25,97.5,94.58333333333333
825,131.25,7.5,161.25,221.25,105,52.5,56.25,93.75,92.08333333333333
826,112.5,-15,153.75,206.25,90,41.25,41.25,78.75,78.75
827,101.25,-26.25,146.25,198.75,78.75,33.75,33.75,71.25,70.83333333333333
828,97.5,-30,146.25,195,75,30,26.25,67.5,67.5
829,82.5,-48.75,150,191.25,71.25,22.5,22.5,60,61.25
830,71.25,-60,146.25,180,63.75,15,11.25,45,52.5
831,60,-52.5,146.25,172.5,56.25,11.25,3.75,37.5,48.333333333333336
832,60,-37.5,150,168.75,56.25,3.75,0,30,47.916666666666664
833,56.25,-37.5,153.75,172.5,56.25,3.75,0,26.25,47.916666666666664
834,45,-45,150,168.75,52.5,0,-7.5,22.5,42.916666666666664
835,56.25,-48.75,157.5,172.5,60,3.75,0,30,47.916666666666664
836,63.75,-56.25,161.25,183.75,63.75,11.25,7.5,41.25,52.916666666666664
837,63.75,-63.75,153.75,168.75,48.75,3.75,0,33.75,45.416666666666664
838,41.25,-82.5,146.25,153.75,37.5,-3.75,-11.25,22.5,33.75
839,30,-90,142.5,150,45,-7.5,-15,18.75,30.416666666666668
840,22.5,-97.5,142.5,146.25,37.5,-11.25,-18.75,15,26.25
841,18.75,-97.5,142.5,142.5,33.75,-11.25,-22.5,11.25,24.166666666666668
842,18.75,-86.25,142.5,135,30,-18.75,-26.25,7.5,22.5
843,7.5,-86.25,135,123.75,22.5,-26.25,-37.5,-3.75,15.0
844,-3.75,-93.75,135,123.75,18.75,-30,-41.25,-11.25,10.833333333333334
845,-3.75,-93.75,138.75,123.75,15,-33.75,-41.25,-11.25,10.416666666666666
846,3.75,-90,135,116.25,15,-33.75,-41.25,-11.25,10.416666666666666
847,11.25,-86.25,138.75,116.25,7.5,-33.75,-37.5,-7.5,12.083333333333334
848,11.25,-93.75,146.25,123.75,15,-26.25,-33.75,0,15.833333333333334
849,7.5,-105,135,120,18.75,-26.25,-37.5,-3.75,12.083333333333334
850,-7.5,-127.5,127.5,105,3.75,-41.25,-48.75,-15,-0.4166666666666667
851,-7.5,-131.25,131.25,105,3.75,-37.5,-45,-11.25,0.8333333333333334
852,-15,-131.25,123.75,97.5,-3.75,-45,-52.5,-18.75,-5.0
853,-26.25,-138.75,120,86.25,-7.5,-52.5,-60,-22.5,-11.25
854,-33.75,-142.5,116.25,82.5,-11.25,-56.25,-67.5,-30,-15.833333333333334
855,-30,-131.25,116.25,78.75,-15,-60,-71.25,-37.5,-16.666666666666668
856,-26.25,-123.75,120,75,-18.75,-60,-71.25,-37.5,-15.833333333333334
857,-26.25,-120,120,75,-18.75,-63.75,-71.25,-37.5,-15.833333333333334
858,-26.25,-116.25,120,78.75,-15,-63.75,-71.25,-37.5,-14.583333333333334
859,-22.5,-120,123.75,78.75,-18.75,-60,-67.5,-33.75,-13.333333333333334
860,-18.75,-127.5,127.5,82.5,-15,-56.25,-63.75,-26.25,-10.833333333333334
861,-22.5,-142.5,120,78.75,-15,-56.25,-63.75,-26.25,-14.166666666666666
862,-37.5,-161.25,112.5,67.5,-22.5,-63.75,-71.25,-33.75,-23.333333333333332
863,-45,-161.25,116.25,71.25,-26.25,-63.75,-71.25,-30,-23.333333333333332
864,-45,-157.5,112.5,63.75,-26.25,-67.5,-75,-37.5,-25.833333333333332
865,-41.25,-153.75,112.5,60,-26.25,-67.5,-75,-41.25,-25.833333333333332
866,-30,-142.5,105,56.25,-30,-75,-82.5,-48.75,-27.5
867,-33.75,-127.5,108.75,56.25,-37.5,-71.25,-78.75,-45,-25.416666666666668
868,-37.5,-120,116.25,45,-45,-71.25,-78.75,-41.25,-25.833333333333332
869,-33.75,-120,116.25,56.25,-26.25,-63.75,-75,-41.25,-20.833333333333332
870,-37.5,-135,116.25,71.25,-15,-63.75,-75,-41.25,-20.0
871,-30,-146.25,116.25,71.25,-18.75,-63.75,-75,-41.25,-20.833333333333332
872,-33.75,-153.75,123.75,75,-15,-56.25,-67.5,-33.75,-17.916666666666668
873,-30,-157.5,120,75,-11.25,-52.5,-63.75,-30,-16.666666666666668
874,-18.75,-157.5,112.5,71.25,-15,-52.5,-63.75,-30,-17.083333333333332
875,-33.75,-161.25,112.5,71.25,-15,-56.25,-63.75,-33.75,-20.0
876,-48.75,-161.25,112.5,75,-15,-56.25,-63.75,-33.75,-21.25
877,-41.25,-157.5,112.5,75,-15,-52.5,-60,-30,-18.75
878,-37.5,-150,112.5,67.5,-18.75,-56.25,-63.75,-33.75,-20.0
879,-33.75,-138.75,108.75,63.75,-18.75,-60,-71.25,-41.25,-21.25
880,-30,-123.75,112.5,67.5,-18.75,-60,-71.25,-41.25,-18.333333333333332
881,-33.75,-120,116.25,75,-15,-56.25,-67.5,-37.5,-15.416666666666666
882,-33.75,-127.5,116.25,75,-11.25,-52.5,-63.75,-33.75,-14.583333333333334
883,-26.25,-127.5,116.25,82.5,-3.75,-48.75,-56.25,-26.25,-10.0
884,-15,-123.75,123.75,93.75,7.5,-33.75,-45,-15,-0.8333333333333334
885,-18.75,-131.25,123.75,93.75,0,-37.5,-45,-15,-3.3333333333333335
886,-22.5,-131.25,120,86.25,-3.75,-41.25,-48.75,-18.75,-6.666666666666667
887,-18.75,-135,116.25,86.25,0,-41.25,-52.5,-18.75,-7.083333333333333
888,-22.5,-135,112.5,82.5,-3.75,-41.25,-56.25,-18.75,-9.166666666666666
889,-30,-138.75,112.5,75,-11.25,-45,-60,-26.25,-13.75
890,-33.75,-146.25,108.75,75,-11.25,-48.75,-63.75,-30,-16.666666666666668
891,-45,-138.75,112.5,78.75,-3.75,-45,-60,-30,-14.583333333333334
892,-45,-120,116.25,78.75,-3.75,-41.25,-56.25,-30,-11.25
893,-41.25,-116.25,116.25,82.5,0,-41.25,-52.5,-26.25,-8.75
894,-48.75,-127.5,120,86.25,3.75,-37.5,-48.75,-22.5,-8.333333333333334
895,-45,-131.25,123.75,93.75,11.25,-30,-41.25,-15,-3.75
896,-7.5,-123.75,120,101.25,15,-26.25,-33.75,-7.5,4.166666666666667
897,-7.5,-135,116.25,93.75,7.5,-30,-41.25,-7.5,-0.4166666666666667
898,-15,-135,112.5,93.75,7.5,-26.25,-41.25,-7.5,-1.25
899,-11.25,-127.5,108.75,90,11.25,-26.25,-37.5,-3.75,0.4166666666666667
900,-22.5,-127.5,112.5,90,7.5,-26.25,-37.5,-3.75,-0.8333333333333334
901,-41.25,-138.75,112.5,90,7.5,-33.75,-45,-11.25,-6.666666666666667
902,-41.25,-138.75,108.75,86.25,3.75,-33.75,-52.5,-18.75,-9.583333333333334
903,-33.75,-131.25,105,78.75,-7.5,-37.5,-52.5,-22.5,-11.25
904,-22.5,-120,112.5,78.75,-7.5,-37.5,-48.75,-18.75,-7.083333333333333
905,-22.5,-112.5,112.5,86.25,7.5,-30,-45,-18.75,-2.5
906,-30,-108.75,116.25,97.5,18.75,-22.5,-41.25,-11.25,2.0833333333333335
907,-18.75,-105,120,97.5,15,-26.25,-37.5,-7.5,4.166666666666667
908,-11.25,-112.5,116.25,101.25,15,-22.5,-33.75,0,5.833333333333333
909,-3.75,-120,108.75,93.75,11.25,-22.5,-33.75,0,3.75
910,-11.25,-123.75,105,86.25,7.5,-26.25,-33.75,0,0.4166666666666667
911,-18.75,-123.75,108.75,86.25,7.5,-22.5,-30,3.75,1.25
912,-15,-123.75,108.75,78.75,-3.75,-22.5,-30,0,-0.8333333333333334
913,-22.5,-127.5,105,78.75,3.75,-26.25,-33.75,-3.75,-2.9166666666666665
914,-26.25,-123.75,101.25,75,-3.75,-33.75,-45,-11.25,-7.5
915,-30,-116.25,97.5,71.25,-7.5,-41.25,-52.5,-18.75,-10.833333333333334
916,-33.75,-116.25,97.5,71.25,0,-33.75,-48.75,-18.75,-9.166666666666666
917,-33.75,-112.5,97.5,71.25,-3.75,-37.5,-52.5,-22.5,-10.416666666666666
918,-30,-105,105,78.75,0,-37.5,-48.75,-18.75,-6.25
919,-22.5,-105,112.5,90,11.25,-26.25,-37.5,-7.5,1.6666666666666667
920,-18.75,-112.5,112.5,93.75,15,-22.5,-30,0,4.166666666666667
921,-11.25,-116.25,105,86.25,7.5,-26.25,-33.75,0,1.25
922,-11.25,-123.75,97.5,78.75,0,-33.75,-41.25,-7.5,-4.583333333333333
923,-11.25,-123.75,101.25,75,0,-30,-41.25,-3.75,-3.75
924,-11.25,-131.25,97.5,75,0,-33.75,-41.25,-3.75,-5.416666666666667
925,-22.5,-150,90,67.5,-7.5,-37.5,-48.75,-11.25,-13.333333333333334
926,-30,-146.25,90,60,-11.25,-41.25,-48.75,-18.75,-16.25
927,-45,-131.25,97.5,60,-7.5,-37.5,-45,-15,-13.75
928,-41.25,-108.75,101.25,67.5,0,-33.75,-45,-7.5,-7.5
929,-26.25,-101.25,101.25,67.5,-3.75,-37.5,-48.75,-11.25,-6.666666666666667
930,-22.5,-116.25,93.75,56.25,-15,-45,-56.25,-22.5,-14.166666666666666
931,-22.5,-108.75,93.75,56.25,-15,-45,-56.25,-22.5,-13.333333333333334
932,-15,-105,93.75,63.75,-3.75,-37.5,-48.75,-11.25,-7.083333333333333
933,-11.25,-127.5,97.5,63.75,-3.75,-33.75,-37.5,0,-5.833333333333333
934,-15,-135,101.25,67.5,0,-26.25,-33.75,7.5,-3.75
935,-22.5,-123.75,101.25,67.5,3.75,-26.25,-30,7.5,-2.5
936,-15,-116.25,97.5,63.75,0,-30,-37.5,0,-4.166666666666667
937,-15,-120,90,52.5,-15,-41.25,-48.75,-11.25,-12.083333333333334
938,-33.75,-127.5,86.25,45,-15,-45,-52.5,-15,-17.5
939,-37.5,-127.5,86.25,41.25,-22.5,-48.75,-56.25,-22.5,-20.833333333333332
940,-33.75,-120,93.75,41.25,-22.5,-48.75,-56.25,-22.5,-18.75
941,-26.25,-116.25,93.75,45,-18.75,-45,-56.25,-18.75,-15.833333333333334
942,-26.25,-120,90,41.25,-26.25,-48.75,-60,-22.5,-19.166666666666668
943,-30,-112.5,93.75,48.75,-15,-41.25,-52.5,-15,-13.75
944,-26.25,-120,93.75,56.25,-11.25,-41.25,-48.75,-11.25,-12.083333333333334
945,-26.25,-138.75,90,56.25,-11.25,-41.25,-45,-7.5,-13.75
946,-26.25,-142.5,86.25,48.75,-15,-45,-52.5,-11.25,-17.5
947,-26.25,-135,90,45,-15,-41.25,-52.5,-7.5,-15.833333333333334
948,-18.75,-127.5,82.5,45,-15,-41.25,-52.5,-11.25,-15.416666666666666
949,-26.25,-127.5,82.5,41.25,-18.75,-45,-52.5,-11.25,-17.5
950,-37.5,-138.75,78.75,26.25,-37.5,-56.25,-63.75,-22.5,-27.916666666666668
951,-41.25,-138.75,75,15,-41.25,-60,-67.5,-30,-32.083333333333336
952,-33.75,-127.5,75,26.25,-30,-56.25,-63.75,-26.25,-26.25
953,-26.25,-120,78.75,26.25,-30,-60,-67.5,-26.25,-25.0
954,-18.75,-116.25,82.5,30,-30,-56.25,-63.75,-26.25,-22.083333333333332
955,-15,-112.5,86.25,41.25,-22.5,-48.75,-56.25,-15,-15.833333333333334
956,-15,-116.25,86.25,41.25,-18.75,-45,-48.75,-3.75,-13.333333333333334
957,-22.5,-135,82.5,37.5,-22.5,-45,-52.5,-7.5,-18.333333333333332
958,-30,-146.25,78.75,37.5,-22.5,-45,-52.5,-11.25,-21.25
959,-37.5,-146.25,82.5,33.75,-22.5,-48.75,-52.5,-7.5,-22.083333333333332
960,-33.75,-146.25,82.5,30,-30,-52.5,-56.25,-11.25,-24.166666666666668
961,-30,-142.5,82.5,30,-30,-48.75,-52.5,-11.25,-22.5
962,-37.5,-142.5,71.25,15,-45,-60,-63.75,-22.5,-31.666666666666668
963,-37.5,-135,67.5,7.5,-52.5,-63.75,-67.5,-22.5,-33.75
964,-22.5,-120,71.25,7.5,-41.25,-63.75,-67.5,-26.25,-29.166666666666668
965,-15,-112.5,78.75,18.75,-33.75,-60,-63.75,-22.5,-23.333333333333332
966,-26.25,-120,71.25,18.75,-41.25,-63.75,-67.5,-26.25,-28.333333333333332
967,-30,-127.5,71.25,22.5,-33.75,-56.25,-60,-18.75,-25.833333333333332
968,-26.25,-131.25,82.5,30,-26.25,-48.75,-52.5,-11.25,-20.416666666666668
969,-26.25,-142.5,78.75,26.25,-33.75,-56.25,-56.25,-11.25,-24.583333333333332
970,-33.75,-153.75,75,18.75,-37.5,-63.75,-60,-15,-30.0
971,-30,-146.25,78.75,26.25,-30,-56.25,-56.25,-11.25,-25.0
972,-33.75,-146.25,78.75,22.5,-33.75,-56.25,-60,-11.25,-26.666666666666668
973,-30,-146.25,78.75,18.75,-37.5,-56.25,-60,-11.25,-27.083333333333332
974,-22.5,-142.5,71.25,11.25,-41.25,-63.75,-67.5,-18.75,-30.416666666666668
975,-30,-135,67.5,7.5,-45,-67.5,-71.25,-26.25,-33.333333333333336
976,-41.25,-131.25,71.25,7.5,-45,-67.5,-75,-30,-34.583333333333336
977,-37.5,-120,75,7.5,-45,-67.5,-75,-30,-32.5
978,-33.75,-112.5,78.75,11.25,-48.75,-67.5,-67.5,-26.25,-29.583333333333332
979,-30,-112.5,82.5,18.75,-41.25,-63.75,-63.75,-18.75,-25.416666666666668
980,-26.25,-116.25,86.25,30,-26.25,-52.5,-56.25,-11.25,-19.166666666666668
981,-15,-112.5,90,33.75,-18.75,-45,-48.75,-3.75,-13.333333333333334
982,-15,-105,93.75,30,-22.5,-45,-45,0,-12.083333333333334
983,-18.75,-101.25,105,33.75,-22.5,-41.25,-41.25,3.75,-9.166666666666666
984,-26.25,-105,108.75,45,-15,-33.75,-37.5,3.75,-6.666666666666667
985,-33.75,-101.25,105,45,-11.25,-33.75,-37.5,3.75,-7.083333333333333
986,-41.25,-93.75,108.75,41.25,-18.75,-37.5,-41.25,0,-9.166666666666666
987,-37.5,-90,116.25,41.25,-15,-37.5,-45,-7.5,-8.333333333333334
988,-26.25,-86.25,116.25,37.5,-18.75,-45,-52.5,-15,-10.0
989,-15,-78.75,120,45,-15,-41.25,-48.75,-11.25,-5.0
990,-11.25,-75,131.25,48.75,-11.25,-37.5,-45,-7.5,-0.8333333333333334
991,-7.5,-75,135,60,0,-30,-37.5,3.75,5.416666666666667
992,0,-71.25,142.5,78.75,15,-18.75,-22.5,15,15.416666666666666
993,3.75,-71.25,142.5,78.75,15,-18.75,-26.25,15,15.416666666666666
994,-3.75,-78.75,138.75,71.25,7.5,-22.5,-30,15,10.833333333333334
995,-7.5,-75,138.75,67.5,3.75,-22.5,-30,15,10.0
996,-11.25,-67.5,135,71.25,11.25,-15,-22.5,18.75,13.333333333333334
997,-15,-63.75,138.75,67.5,11.25,-11.25,-18.75,26.25,15.0
998,-15,-52.5,138.75,60,0,-15,-18.75,26.25,13.75
999,-18.75,-37.5,131.25,60,7.5,-11.25,-18.75,22.5,15.0
1000,-15,-26.25,127.5,67.5,18.75,-7.5,-11.25,26.25,20.0
1001,-3.75,-22.5,120,67.5,18.75,-3.75,-3.75,33.75,22.916666666666668
1002,11.25,-11.25,108.75,63.75,18.75,-3.75,-3.75,37.5,24.583333333333332
1003,26.25,-7.5,93.75,67.5,22.5,-3.75,-3.75,37.5,25.833333333333332
1004,33.75,-22.5,78.75,63.75,15,-3.75,0,41.25,22.916666666666668
1005,37.5,-33.75,78.75,63.75,15,0,0,48.75,23.333333333333332
1006,41.25,-45,75,63.75,15,-3.75,-3.75,45,20.833333333333332
1007,45,-56.25,63.75,52.5,7.5,-11.25,-7.5,37.5,14.583333333333334
1008,37.5,-63.75,60,45,3.75,-11.25,-11.25,37.5,10.833333333333334
1009,26.25,-71.25,48.75,26.25,-15,-26.25,-26.25,26.25,-1.25
1010,22.5,-75,41.25,15,-26.25,-33.75,-33.75,18.75,-7.916666666666667
1011,30,-71.25,41.25,11.25,-26.25,-37.5,-33.75,15,-7.916666666666667
1012,33.75,-63.75,37.5,3.75,-30,-41.25,-41.25,7.5,-10.416666666666666
1013,30,-63.75,37.5,7.5,-30,-45,-41.25,7.5,-10.833333333333334
1014,15,-63.75,52.5,18.75,-18.75,-30,-33.75,15,-5.0
1015,7.5,-71.25,60,18.75,-18.75,-30,-30,15,-5.416666666666667
1016,11.25,-90,56.25,18.75,-18.75,-37.5,-33.75,15,-8.75
1017,15,-101.25,56.25,22.5,-18.75,-37.5,-33.75,15,-9.166666666666666
1018,22.5,-86.25,63.75,30,-11.25,-26.25,-26.25,22.5,-1.25
1019,22.5,-82.5,67.5,30,-11.25,-26.25,-26.25,22.5,-0.4166666666666667
1020,-7.5,-108.75,60,15,-26.25,-41.25,-37.5,11.25,-15.0
1021,-30,-127.5,52.5,3.75,-37.5,-48.75,-48.75,0,-26.25
1022,-30,-123.75,52.5,0,-41.25,-52.5,-52.5,-7.5,-28.333333333333332
1023,-30,-116.25,48.75,-15,-56.25,-60,-63.75,-18.75,-34.583333333333336
1024,-37.5,-116.25,48.75,-11.25,-52.5,-67.5,-67.5,-26.25,-36.666666666666664
1025,-33.75,-116.25,52.5,-15,-56.25,-71.25,-71.25,-30,-37.916666666666664
1026,-30,-120,48.75,-26.25,-75,-78.75,-78.75,-33.75,-43.75
1027,-18.75,-120,48.75,-18.75,-60,-75,-75,-30,-38.75
1028,-26.25,-131.25,52.5,-3.75,-45,-67.5,-71.25,-26.25,-35.416666666666664
1029,-33.75,-146.25,52.5,-11.25,-56.25,-75,-75,-30,-41.666666666666664
1030,-37.5,-153.75,45,-18.75,-63.75,-82.5,-82.5,-33.75,-47.5
1031,-37.5,-161.25,41.25,-22.5,-63.75,-82.5,-86.25,-33.75,-49.583333333333336
1032,-37.5,-165,33.75,-30,-71.25,-86.25,-82.5,-33.75,-52.5
1033,-41.25,-168.75,33.75,-30,-75,-86.25,-78.75,-30,-52.916666666666664
1034,-45,-165,37.5,-30,-71.25,-86.25,-82.5,-37.5,-53.333333333333336
1035,-37.5,-153.75,33.75,-33.75,-67.5,-86.25,-86.25,-45,-52.916666666666664
1036,-37.5,-138.75,41.25,-30,-67.5,-82.5,-82.5,-41.25,-48.75
1037,-48.75,-131.25,45,-30,-67.5,-82.5,-82.5,-41.25,-48.75
1038,-52.5,-135,45,-22.5,-60,-82.5,-82.5,-41.25,-47.916666666666664
1039,-52.5,-146.25,48.75,-18.75,-56.25,-78.75,-78.75,-41.25,-47.083333333333336
1040,-41.25,-150,48.75,-15,-60,-78.75,-75,-33.75,-45.0
1041,-37.5,-153.75,48.75,-11.25,-56.25,-75,-75,-30,-43.333333333333336
1042,-45,-161.25,48.75,-15,-56.25,-75,-75,-30,-45.416666666666664
1043,-48.75,-161.25,45,-18.75,-60,-78.75,-78.75,-33.75,-48.333333333333336
1044,-45,-157.5,45,-15,-56.25,-75,-78.75,-33.75,-46.25
1045,-41.25,-157.5,45,-15,-60,-75,-75,-30,-45.416666666666664
1046,-41.25,-153.75,41.25,-22.5,-63.75,-78.75,-78.75,-37.5,-48.333333333333336
1047,-45,-150,37.5,-26.25,-67.5,-82.5,-86.25,-45,-51.666666666666664
1048,-52.5,-142.5,41.25,-26.25,-63.75,-82.5,-86.25,-45,-50.833333333333336
1049,-52.5,-138.75,45,-22.5,-63.75,-86.25,-90,-48.75,-50.833333333333336
1050,-52.5,-142.5,48.75,-18.75,-60,-82.5,-82.5,-45,-48.333333333333336
1051,-52.5,-150,48.75,-11.25,-60,-82.5,-82.5,-45,-48.333333333333336
1052,-41.25,-165,56.25,-7.5,-60,-82.5,-86.25,-45,-47.916666666666664
1053,-37.5,-187.5,67.5,3.75,-71.25,-93.75,-101.25,-56.25,-52.916666666666664
1054,-45,-206.25,108.75,48.75,-48.75,-97.5,-108.75,-71.25,-46.666666666666664
1055,-41.25,-225,161.25,97.5,-33.75,-108.75,-131.25,-101.25,-42.5
1056,-33.75,-258.75,210,138.75,-41.25,-135,-165,-135,-46.666666666666664
1057,-30,-277.5,258.75,180,-37.5,-153.75,-187.5,-161.25,-45.416666666666664
1058,-30,-273.75,296.25,213.75,-30,-165,-202.5,-176.25,-40.833333333333336
1059,-11.25,-243.75,341.25,281.25,11.25,-135,-180,-165,-11.25
1060,26.25,-180,393.75,367.5,82.5,-78.75,-135,-120,39.583333333333336
1061,67.5,-112.5,431.25,450,157.5,-15,-75,-71.25,92.5
1062,112.5,-63.75,450,517.5,225,48.75,-15,-15,140.0
1063,161.25,0,468.75,573.75,288.75,116.25,48.75,48.75,189.58333333333334
1064,221.25,82.5,483.75,633.75,360,191.25,131.25,127.5,247.91666666666666
1065,285,146.25,480,693.75,435,285,225,213.75,307.0833333333333
1066,345,240,453.75,735,528.75,401.25,345,330,375.4166666666667
1067,401.25,393.75,412.5,753.75,618.75,517.5,468.75,453.75,446.6666666666667
1068,480,566.25,352.5,757.5,716.25,660,618.75,596.25,527.5
1069,558.75,727.5,296.25,772.5,832.5,817.5,780,753.75,615.4166666666666
1070,577.5,892.5,277.5,810,956.25,978.75,948.75,911.25,705.8333333333334
1071,570,1091.25,198.75,761.25,1038.75,1132.5,1125,1091.25,778.75
1072,577.5,1323.75,56.25,641.25,1095,1293.75,1327.5,1305,846.6666666666666
1073,630,1500,-82.5,510,1140,1432.5,1500,1481.25,901.25
1074,656.25,1560,-228.75,326.25,1136.25,1526.25,1616.25,1597.5,910.0
1075,630,1605,-348.75,180,1158.75,1627.5,1728.75,1698.75,920.0
1076,573.75,1605,-363.75,183.75,1252.5,1732.5,1815,1755,950.4166666666666
1077,495,1530,-337.5,195,1308.75,1785,1830,1732.5,948.75
1078,397.5,1447.5,-360,123.75,1308.75,1785,1803.75,1683.75,910.0
1079,296.25,1346.25,-431.25,-3.75,1233.75,1706.25,1717.5,1593.75,828.75
1080,195,1166.25,-472.5,-135,1065,1500,1507.5,1402.5,692.0833333333334
1081,71.25,937.5,-438.75,-213.75,870,1218.75,1222.5,1147.5,535.0
1082,-45,731.25,-416.25,-341.25,581.25,885,918.75,892.5,356.25
1083,-123.75,555,-453.75,-540,228.75,513.75,603.75,648.75,159.16666666666666
1084,-191.25,397.5,-480,-693.75,-56.25,217.5,345,438.75,-2.5
1085,-225,270,-450,-723.75,-187.5,56.25,180,285,-88.33333333333333
1086,-228.75,150,-408.75,-663.75,-202.5,-15,71.25,165,-125.83333333333333
1087,-225,52.5,-382.5,-592.5,-183.75,-45,7.5,78.75,-143.33333333333334
1088,-206.25,7.5,-367.5,-506.25,-131.25,-26.25,7.5,60,-129.16666666666666
1089,-168.75,-7.5,-333.75,-416.25,-82.5,11.25,33.75,75,-98.75
1090,-153.75,-33.75,-303.75,-363.75,-78.75,7.5,33.75,71.25,-91.25
1091,-131.25,-48.75,-266.25,-322.5,-90,-3.75,22.5,63.75,-86.25
1092,-97.5,-45,-225,-262.5,-71.25,-3.75,18.75,60,-69.58333333333333
1093,-71.25,-22.5,-172.5,-187.5,-33.75,18.75,33.75,71.25,-40.416666666666664
1094,-67.5,-3.75,-131.25,-123.75,-3.75,33.75,48.75,82.5,-18.333333333333332
1095,-48.75,11.25,-97.5,-63.75,33.75,56.25,60,86.25,4.166666666666667
1096,-22.5,22.5,-52.5,-7.5,71.25,75,71.25,93.75,27.916666666666668
1097,-7.5,22.5,-7.5,37.5,93.75,82.5,75,90,42.916666666666664
1098,-3.75,15,22.5,63.75,101.25,86.25,75,86.25,49.583333333333336
1099,-7.5,3.75,41.25,75,101.25,78.75,67.5,78.75,48.75
1100,0,0,60,97.5,112.5,82.5,67.5,82.5,55.833333333333336
1101,3.75,-15,63.75,105,108.75,78.75,63.75,78.75,54.166666666666664
1102,-3.75,-56.25,60,90,86.25,56.25,41.25,56.25,36.666666666666664
1103,-7.5,-75,60,82.5,67.5,41.25,26.25,45,26.666666666666668
1104,-7.5,-75,67.5,90,71.25,37.5,22.5,45,27.916666666666668
1105,-7.5,-78.75,67.5,90,71.25,33.75,15,37.5,25.416666666666668
1106,-7.5,-82.5,63.75,82.5,56.25,18.75,3.75,26.25,17.916666666666668
1107,-11.25,-82.5,67.5,78.75,48.75,15,0,18.75,15.0
1108,-18.75,-82.5,71.25,75,41.25,0,-11.25,7.5,9.166666666666666
1109,-7.5,-67.5,71.25,78.75,41.25,-3.75,-15,3.75,11.25
1110,-3.75,-63.75,71.25,82.5,41.25,-3.75,-15,3.75,12.5
1111,0,-63.75,75,90,45,0,-11.25,7.5,15.833333333333334
1112,3.75,-63.75,82.5,101.25,52.5,7.5,-3.75,18.75,22.083333333333332
1113,3.75,-86.25,86.25,105,56.25,7.5,-3.75,22.5,21.25
1114,3.75,-101.25,78.75,97.5,48.75,3.75,-7.5,15,15.416666666666666
1115,7.5,-93.75,78.75,93.75,41.25,0,-11.25,15,14.583333333333334
1116,3.75,-90,78.75,93.75,41.25,0,-11.25,18.75,15.0
1117,3.75,-90,78.75,93.75,45,3.75,-3.75,22.5,17.083333333333332
1118,-11.25,-101.25,75,86.25,37.5,0,-11.25,15,10.0
1119,-11.25,-93.75,75,93.75,37.5,3.75,-11.25,11.25,11.666666666666666
1120,3.75,-71.25,78.75,97.5,48.75,3.75,-7.5,11.25,18.333333333333332
1121,0,-71.25,82.5,93.75,45,3.75,-7.5,11.25,17.5
1122,3.75,-75,82.5,93.75,41.25,3.75,-7.5,11.25,17.083333333333332
1123,11.25,-71.25,90,105,48.75,11.25,0,22.5,24.166666666666668
1124,22.5,-75,93.75,116.25,56.25,18.75,7.5,30,30.0
1125,33.75,-78.75,86.25,116.25,60,18.75,7.5,30,30.416666666666668
1126,22.5,-78.75,82.5,105,52.5,15,3.75,26.25,25.416666666666668
1127,11.25,-82.5,78.75,108.75,48.75,11.25,3.75,26.25,22.916666666666668
1128,11.25,-86.25,75,112.5,52.5,15,3.75,30,23.75
1129,18.75,-78.75,82.5,116.25,60,22.5,11.25,33.75,29.583333333333332
1130,30,-60,82.5,116.25,60,18.75,7.5,30,31.666666666666668
1131,33.75,-52.5,78.75,112.5,60,18.75,3.75,26.25,31.25
1132,33.75,-56.25,75,108.75,52.5,15,0,22.5,27.916666666666668
1133,22.5,-63.75,75,112.5,52.5,15,0,22.5,26.25
1134,18.75,-63.75,75,116.25,56.25,15,3.75,22.5,27.083333333333332
1135,37.5,-52.5,82.5,127.5,71.25,26.25,11.25,33.75,37.5
1136,48.75,-52.5,86.25,142.5,82.5,37.5,22.5,45,45.833333333333336
1137,60,-56.25,86.25,146.25,86.25,41.25,30,48.75,49.166666666666664
1138,52.5,-63.75,78.75,138.75,78.75,37.5,30,48.75,44.583333333333336
1139,41.25,-63.75,82.5,135,78.75,37.5,26.25,52.5,43.333333333333336
1140,48.75,-56.25,82.5,138.75,78.75,41.25,30,56.25,46.666666666666664
1141,56.25,-48.75,82.5,146.25,86.25,48.75,37.5,60,52.083333333333336
1142,48.75,-52.5,78.75,146.25,90,48.75,33.75,56.25,50.0
1143,41.25,-52.5,78.75,138.75,82.5,41.25,26.25,45,44.583333333333336
1144,41.25,-37.5,78.75,138.75,82.5,37.5,26.25,41.25,45.416666666666664
1145,48.75,-22.5,78.75,142.5,90,45,30,45,50.833333333333336
1146,56.25,-33.75,75,146.25,90,45,30,48.75,50.833333333333336
1147,60,-41.25,75,157.5,101.25,56.25,41.25,56.25,56.25
1148,78.75,-26.25,90,168.75,108.75,67.5,56.25,67.5,67.91666666666667
1149,86.25,-30,90,172.5,108.75,67.5,60,75,70.0
1150,75,-45,86.25,172.5,112.5,71.25,60,75,67.5
1151,60,-45,82.5,168.75,112.5,75,60,75,65.41666666666667
1152,56.25,-52.5,82.5,172.5,116.25,75,63.75,78.75,65.83333333333333
1153,63.75,-56.25,82.5,168.75,116.25,75,60,78.75,65.41666666666667
1154,67.5,-48.75,75,168.75,112.5,75,63.75,75,65.41666666666667
1155,75,-37.5,71.25,168.75,116.25,75,60,71.25,66.66666666666667
1156,75,-22.5,78.75,168.75,116.25,78.75,60,71.25,69.58333333333333
1157,78.75,-7.5,90,172.5,120,78.75,63.75,75,74.58333333333333
1158,93.75,3.75,90,183.75,131.25,90,71.25,78.75,82.5
1159,101.25,3.75,82.5,183.75,131.25,90,71.25,78.75,82.5
1160,108.75,0,90,191.25,135,93.75,78.75,90,87.5
1161,112.5,-7.5,86.25,198.75,142.5,101.25,86.25,97.5,90.83333333333333
1162,112.5,-11.25,82.5,202.5,150,108.75,93.75,101.25,93.33333333333333
1163,105,-18.75,82.5,202.5,150,112.5,93.75,105,92.5
1164,120,-11.25,82.5,206.25,150,108.75,93.75,105,95.0
1165,127.5,-3.75,82.5,202.5,150,112.5,97.5,108.75,97.5
1166,120,-3.75,78.75,202.5,150,112.5,97.5,105,95.83333333333333
1167,108.75,0,78.75,198.75,150,112.5,93.75,101.25,93.75
1168,93.75,7.5,75,195,142.5,105,90,93.75,89.16666666666667
1169,97.5,22.5,78.75,202.5,146.25,108.75,93.75,97.5,94.16666666666667
1170,120,37.5,78.75,206.25,150,108.75,97.5,105,100.41666666666667
1171,135,37.5,82.5,210,157.5,116.25,105,108.75,105.83333333333333
1172,138.75,22.5,82.5,221.25,161.25,123.75,108.75,116.25,108.33333333333333
1173,138.75,15,86.25,225,165,127.5,116.25,127.5,111.25
1174,138.75,15,82.5,221.25,161.25,127.5,116.25,127.5,110.0
1175,146.25,22.5,75,213.75,157.5,123.75,112.5,123.75,108.33333333333333
1176,138.75,22.5,78.75,217.5,157.5,127.5,116.25,131.25,110.0
1177,138.75,18.75,75,221.25,161.25,131.25,116.25,131.25,110.41666666666667
1178,150,30,75,221.25,161.25,131.25,120,131.25,113.33333333333333
1179,150,41.25,75,213.75,157.5,127.5,116.25,127.5,112.08333333333333
1180,146.25,48.75,78.75,206.25,150,123.75,112.5,127.5,110.41666666666667
1181,146.25,52.5,82.5,206.25,150,123.75,116.25,127.5,111.66666666666667
1182,157.5,56.25,75,213.75,157.5,123.75,116.25,127.5,114.16666666666667
1183,168.75,63.75,82.5,221.25,168.75,135,127.5,138.75,122.91666666666667
1184,183.75,67.5,90,228.75,168.75,138.75,131.25,150,128.75
1185,183.75,52.5,82.5,232.5,165,138.75,131.25,150,126.25
1186,183.75,45,78.75,225,165,135,131.25,146.25,123.33333333333333
1187,180,41.25,78.75,217.5,153.75,131.25,123.75,146.25,119.16666666666667
1188,168.75,30,75,213.75,150,127.5,123.75,142.5,114.58333333333333
1189,172.5,33.75,71.25,210,146.25,127.5,123.75,146.25,114.58333333333333
1190,176.25,45,71.25,206.25,142.5,123.75,123.75,146.25,115.0
1191,176.25,52.5,71.25,202.5,138.75,120,116.25,138.75,112.91666666666667
1192,172.5,52.5,75,198.75,135,112.5,108.75,131.25,109.58333333333333
1193,176.25,60,75,202.5,135,116.25,112.5,131.25,112.08333333333333
1194,183.75,67.5,78.75,202.5,131.25,116.25,112.5,135,114.16666666666667
1195,187.5,67.5,82.5,198.75,123.75,112.5,116.25,138.75,114.16666666666667
1196,198.75,71.25,86.25,210,135,116.25,120,146.25,120.41666666666667
1197,195,60,90,221.25,146.25,123.75,127.5,150,123.75
1198,183.75,52.5,86.25,210,131.25,116.25,120,146.25,116.25
1199,187.5,63.75,82.5,198.75,123.75,108.75,112.5,142.5,113.33333333333333
1200,180,63.75,86.25,202.5,123.75,108.75,112.5,142.5,113.33333333333333
1201,176.25,56.25,90,198.75,120,105,108.75,138.75,110.41666666666667
1202,176.25,52.5,86.25,191.25,112.5,97.5,97.5,127.5,104.58333333333333
1203,161.25,52.5,82.5,183.75,101.25,86.25,90,120,97.5
1204,157.5,60,90,183.75,101.25,86.25,90,116.25,98.33333333333333
1205,157.5,60,93.75,183.75,101.25,86.25,86.25,112.5,97.91666666666667
1206,153.75,60,101.25,180,90,78.75,82.5,112.5,95.41666666666667
1207,157.5,63.75,108.75,191.25,101.25,86.25,90,116.25,101.66666666666667
1208,165,60,108.75,202.5,112.5,90,90,116.25,105.0
1209,146.25,33.75,105,195,105,82.5,86.25,108.75,95.83333333333333
1210,138.75,22.5,112.5,191.25,97.5,75,78.75,105,91.25
1211,138.75,18.75,108.75,191.25,93.75,71.25,75,101.25,88.75
1212,135,22.5,112.5,187.5,93.75,71.25,75,97.5,88.33333333333333
1213,135,26.25,112.5,187.5,93.75,67.5,71.25,97.5,87.91666666666667
1214,116.25,11.25,116.25,180,82.5,56.25,60,86.25,78.75
1215,101.25,3.75,120,172.5,75,48.75,52.5,75,72.08333333333333
1216,101.25,18.75,123.75,172.5,78.75,52.5,52.5,71.25,74.58333333333333
1217,108.75,30,123.75,172.5,75,45,45,67.5,74.16666666666667
1218,101.25,22.5,123.75,168.75,71.25,37.5,41.25,60,69.58333333333333
1219,90,11.25,127.5,168.75,71.25,41.25,41.25,56.25,67.5
1220,90,3.75,131.25,172.5,75,45,45,63.75,69.58333333333333
1221,90,-11.25,131.25,176.25,75,37.5,41.25,60,66.66666666666667
1222,78.75,-30,127.5,165,63.75,30,30,52.5,57.5
1223,63.75,-37.5,123.75,157.5,56.25,22.5,26.25,45,50.833333333333336
1224,48.75,-41.25,127.5,157.5,63.75,26.25,22.5,41.25,49.583333333333336
1225,52.5,-41.25,120,150,52.5,18.75,15,33.75,44.583333333333336
1226,52.5,-37.5,116.25,142.5,48.75,11.25,7.5,30,41.25
1227,48.75,-30,120,135,41.25,7.5,3.75,22.5,38.75
1228,30,-33.75,120,131.25,41.25,3.75,-3.75,15,33.75
1229,22.5,-33.75,120,127.5,37.5,0,-3.75,11.25,31.25
1230,18.75,-37.5,123.75,123.75,37.5,0,-3.75,11.25,30.416666666666668
1231,26.25,-41.25,127.5,131.25,41.25,7.5,0,15,34.166666666666664
1232,37.5,-37.5,131.25,138.75,48.75,11.25,3.75,18.75,39.166666666666664
1233,30,-52.5,123.75,131.25,45,7.5,0,15,33.333333333333336
1234,15,-78.75,112.5,112.5,26.25,-7.5,-15,3.75,18.75
1235,7.5,-86.25,108.75,108.75,22.5,-15,-22.5,-7.5,12.916666666666666
1236,7.5,-82.5,112.5,101.25,15,-15,-22.5,-3.75,12.5
1237,7.5,-82.5,112.5,86.25,-3.75,-18.75,-26.25,-7.5,7.5
1238,-3.75,-93.75,105,86.25,3.75,-22.5,-33.75,-15,2.9166666666666665
1239,-11.25,-86.25,101.25,86.25,11.25,-26.25,-37.5,-22.5,1.6666666666666667
1240,-22.5,-82.5,101.25,78.75,0,-33.75,-41.25,-26.25,-2.9166666666666665
1241,-15,-75,101.25,78.75,0,-30,-37.5,-26.25,-0.4166666666666667
1242,-11.25,-67.5,105,78.75,3.75,-30,-33.75,-22.5,2.5
1243,-11.25,-71.25,105,78.75,7.5,-26.25,-33.75,-18.75,3.3333333333333335
1244,-7.5,-75,108.75,90,15,-18.75,-26.25,-11.25,8.333333333333334
1245,-7.5,-82.5,108.75,86.25,7.5,-22.5,-26.25,-11.25,5.833333333333333
1246,-11.25,-97.5,105,71.25,-7.5,-30,-33.75,-15,-2.0833333333333335
1247,-18.75,-101.25,101.25,67.5,-7.5,-30,-33.75,-15,-4.166666666666667
1248,-30,-108.75,101.25,75,3.75,-26.25,-33.75,-15,-3.75
1249,-37.5,-123.75,97.5,67.5,-3.75,-33.75,-41.25,-26.25,-11.25
1250,-37.5,-120,93.75,56.25,-15,-45,-48.75,-33.75,-16.666666666666668
1251,-37.5,-112.5,93.75,48.75,-18.75,-48.75,-52.5,-37.5,-18.333333333333332
1252,-45,-112.5,90,45,-18.75,-48.75,-56.25,-45,-21.25
1253,-48.75,-108.75,90,45,-18.75,-48.75,-56.25,-45,-21.25
1254,-45,-90,97.5,48.75,-18.75,-48.75,-56.25,-45,-17.5
1255,-41.25,-86.25,93.75,52.5,-18.75,-45,-56.25,-45,-16.25
1256,-33.75,-97.5,93.75,56.25,-15,-41.25,-48.75,-41.25,-14.166666666666666
1257,-37.5,-120,97.5,56.25,-11.25,-45,-48.75,-37.5,-16.25
1258,-37.5,-127.5,93.75,56.25,-11.25,-41.25,-48.75,-37.5,-17.083333333333332
1259,-26.25,-116.25,90,48.75,-15,-41.25,-48.75,-33.75,-15.833333333333334
1260,-22.5,-108.75,93.75,52.5,-15,-37.5,-45,-30,-12.5
1261,-18.75,-101.25,97.5,63.75,0,-30,-37.5,-26.25,-5.833333333333333
1262,-22.5,-112.5,86.25,56.25,-11.25,-41.25,-48.75,-37.5,-14.583333333333334
1263,-30,-116.25,86.25,45,-22.5,-48.75,-56.25,-45,-20.833333333333332
1264,-33.75,-101.25,93.75,48.75,-15,-45,-52.5,-48.75,-17.083333333333332
1265,-37.5,-86.25,93.75,48.75,-15,-45,-52.5,-48.75,-15.833333333333334
1266,-37.5,-82.5,97.5,52.5,-15,-41.25,-52.5,-45,-13.75
1267,-37.5,-90,101.25,60,-11.25,-37.5,-45,-37.5,-10.833333333333334
1268,-26.25,-82.5,105,71.25,7.5,-26.25,-33.75,-26.25,-1.25
1269,-30,-97.5,97.5,75,11.25,-22.5,-30,-26.25,-2.5
1270,-37.5,-120,86.25,60,-3.75,-33.75,-41.25,-33.75,-13.75
1271,-33.75,-120,93.75,60,-11.25,-33.75,-41.25,-30,-12.916666666666666
1272,-30,-108.75,97.5,63.75,0,-26.25,-33.75,-26.25,-7.083333333333333
1273,-26.25,-105,93.75,67.5,3.75,-22.5,-33.75,-30,-5.833333333333333
1274,-30,-105,90,60,0,-30,-41.25,-33.75,-10.0
1275,-30,-105,86.25,56.25,-3.75,-37.5,-45,-41.25,-13.333333333333334
1276,-26.25,-97.5,86.25,56.25,-3.75,-33.75,-45,-45,-12.083333333333334
1277,-30,-82.5,90,60,0,-30,-41.25,-37.5,-7.916666666666667
1278,-33.75,-82.5,97.5,67.5,7.5,-22.5,-37.5,-33.75,-4.166666666666667
1279,-33.75,-86.25,101.25,71.25,11.25,-22.5,-33.75,-30,-2.5
1280,-30,-90,101.25,78.75,18.75,-15,-26.25,-22.5,1.6666666666666667
1281,-26.25,-97.5,97.5,82.5,18.75,-11.25,-18.75,-15,3.3333333333333335
1282,-22.5,-105,97.5,78.75,15,-15,-22.5,-15,1.25
1283,-15,-101.25,93.75,75,15,-15,-26.25,-15,1.25
1284,-22.5,-101.25,90,71.25,15,-15,-26.25,-18.75,-0.8333333333333334
1285,-33.75,-101.25,97.5,75,15,-15,-26.25,-18.75,-0.8333333333333334
1286,-37.5,-105,93.75,71.25,7.5,-18.75,-30,-22.5,-4.583333333333333
1287,-41.25,-105,86.25,56.25,0,-26.25,-33.75,-33.75,-10.833333333333334
1288,-45,-101.25,86.25,56.25,0,-30,-37.5,-37.5,-12.083333333333334
1289,-37.5,-86.25,86.25,60,3.75,-26.25,-37.5,-37.5,-8.333333333333334
1290,-33.75,-78.75,90,63.75,3.75,-26.25,-37.5,-37.5,-6.25
1291,-26.25,-75,90,67.5,3.75,-22.5,-33.75,-33.75,-3.3333333333333335
1292,-11.25,-67.5,93.75,75,15,-15,-22.5,-22.5,5.0
1293,-7.5,-75,97.5,86.25,30,-7.5,-15,-11.25,10.833333333333334
1294,-15,-90,90,78.75,18.75,-11.25,-18.75,-15,4.166666666666667
1295,-18.75,-97.5,86.25,71.25,15,-15,-22.5,-18.75,0.0
1296,-18.75,-101.25,86.25,75,15,-15,-22.5,-15,0.4166666666666667
1297,-15,-93.75,90,71.25,15,-15,-22.5,-15,1.6666666666666667
1298,-11.25,-86.25,82.5,63.75,11.25,-18.75,-26.25,-18.75,-0.4166666666666667
1299,-18.75,-86.25,82.5,60,3.75,-22.5,-30,-22.5,-3.75
1300,-30,-86.25,82.5,56.25,0,-26.25,-33.75,-30,-7.5
1301,-33.75,-82.5,82.5,56.25,3.75,-26.25,-33.75,-33.75,-7.5
1302,-22.5,-75,82.5,60,7.5,-26.25,-33.75,-30,-4.166666666666667
1303,-22.5,-82.5,90,60,3.75,-22.5,-30,-22.5,-2.9166666666666665
1304,-26.25,-97.5,90,67.5,11.25,-18.75,-22.5,-18.75,-1.6666666666666667
1305,-11.25,-93.75,90,78.75,30,-7.5,-15,-11.25,6.666666666666667
1306,0,-90,78.75,60,7.5,-15,-22.5,-15,0.4166666666666667
1307,-3.75,-90,75,56.25,0,-15,-18.75,-11.25,-0.8333333333333334
1308,0,-82.5,82.5,63.75,11.25,-11.25,-15,-7.5,4.583333333333333
1309,0,-67.5,82.5,56.25,11.25,-11.25,-18.75,-7.5,5.0
1310,-7.5,-67.5,75,52.5,3.75,-18.75,-22.5,-15,0.0
1311,-22.5,-97.5,67.5,41.25,-7.5,-30,-37.5,-33.75,-13.333333333333334
1312,-33.75,-101.25,67.5,37.5,-7.5,-33.75,-45,-37.5,-17.083333333333332
1313,-26.25,-78.75,75,48.75,-3.75,-30,-41.25,-30,-9.583333333333334
1314,-26.25,-71.25,75,48.75,0,-26.25,-37.5,-26.25,-7.083333333333333
1315,-26.25,-71.25,75,48.75,3.75,-26.25,-30,-22.5,-5.416666666666667
1316,-15,-71.25,82.5,56.25,11.25,-15,-22.5,-15,1.25
1317,-3.75,-82.5,82.5,63.75,11.25,-15,-22.5,-11.25,2.5
1318,-15,-97.5,71.25,48.75,3.75,-22.5,-26.25,-15,-5.833333333333333
1319,-22.5,-97.5,71.25,41.25,-3.75,-22.5,-26.25,-11.25,-7.916666666666667
1320,-11.25,-82.5,71.25,45,-3.75,-18.75,-26.25,-11.25,-4.166666666666667
1321,-3.75,-75,71.25,48.75,3.75,-18.75,-26.25,-11.25,-1.25
1322,-18.75,-82.5,67.5,45,3.75,-22.5,-30,-18.75,-6.25
1323,-26.25,-86.25,63.75,30,-11.25,-37.5,-41.25,-30,-15.416666666666666
1324,-22.5,-78.75,63.75,33.75,-7.5,-33.75,-37.5,-26.25,-12.083333333333334
1325,-22.5,-75,71.25,37.5,-3.75,-26.25,-33.75,-22.5,-8.333333333333334
1326,-30,-82.5,67.5,33.75,-7.5,-33.75,-37.5,-30,-13.333333333333334
1327,-22.5,-75,63.75,37.5,-7.5,-37.5,-41.25,-30,-12.5
1328,-7.5,-67.5,67.5,41.25,-3.75,-30,-33.75,-22.5,-6.25
1329,-11.25,-86.25,67.5,45,-3.75,-26.25,-33.75,-22.5,-7.916666666666667
1330,-18.75,-97.5,63.75,41.25,-7.5,-30,-37.5,-22.5,-12.083333333333334
1331,-18.75,-97.5,52.5,30,-15,-37.5,-41.25,-26.25,-17.083333333333332
1332,-22.5,-97.5,52.5,22.5,-15,-37.5,-41.25,-26.25,-18.333333333333332
1333,-22.5,-97.5,56.25,18.75,-22.5,-37.5,-37.5,-22.5,-18.333333333333332
1334,-33.75,-108.75,56.25,11.25,-30,-45,-45,-26.25,-24.583333333333332
1335,-37.5,-108.75,52.5,11.25,-26.25,-45,-48.75,-37.5,-26.666666666666668
1336,-33.75,-105,52.5,11.25,-26.25,-45,-48.75,-37.5,-25.833333333333332
1337,-26.25,-90,56.25,15,-22.5,-41.25,-45,-30,-20.416666666666668
1338,-18.75,-75,56.25,18.75,-18.75,-37.5,-41.25,-30,-16.25
1339,-22.5,-75,56.25,18.75,-22.5,-41.25,-45,-33.75,-18.333333333333332
1340,-18.75,-67.5,67.5,26.25,-18.75,-33.75,-37.5,-22.5,-11.666666666666666
1341,-11.25,-71.25,67.5,37.5,-11.25,-30,-30,-15,-7.083333333333333
1342,-11.25,-90,52.5,22.5,-18.75,-37.5,-41.25,-26.25,-16.666666666666668
1343,-18.75,-97.5,48.75,15,-26.25,-41.25,-45,-30,-21.666666666666668
1344,-18.75,-93.75,45,11.25,-30,-45,-52.5,-33.75,-24.166666666666668
1345,-26.25,-97.5,48.75,7.5,-33.75,-48.75,-52.5,-37.5,-26.666666666666668
1346,-30,-101.25,48.75,7.5,-33.75,-48.75,-52.5,-37.5,-27.5
1347,-30,-108.75,41.25,0,-37.5,-52.5,-56.25,-41.25,-31.666666666666668
1348,-30,-105,41.25,-3.75,-45,-56.25,-60,-48.75,-34.166666666666664
1349,-37.5,-97.5,45,0,-37.5,-52.5,-52.5,-45,-30.833333333333332
1350,-33.75,-86.25,52.5,3.75,-30,-45,-48.75,-37.5,-25.0
1351,-26.25,-82.5,52.5,3.75,-33.75,-48.75,-48.75,-37.5,-24.583333333333332
1352,-18.75,-82.5,56.25,7.5,-37.5,-45,-45,-30,-21.666666666666668
1353,-11.25,-86.25,56.25,15,-30,-41.25,-37.5,-22.5,-17.5
1354,-15,-97.5,48.75,15,-22.5,-41.25,-37.5,-26.25,-19.583333333333332
1355,-22.5,-105,48.75,7.5,-33.75,-45,-41.25,-26.25,-24.166666666666668
1356,-15,-97.5,41.25,-7.5,-45,-52.5,-48.75,-30,-28.333333333333332
1357,-22.5,-97.5,41.25,-3.75,-41.25,-52.5,-52.5,-33.75,-29.166666666666668
1358,-37.5,-112.5,37.5,-3.75,-37.5,-56.25,-52.5,-37.5,-33.333333333333336
1359,-37.5,-116.25,33.75,-11.25,-45,-60,-60,-45,-37.916666666666664
1360,-33.75,-108.75,33.75,-15,-52.5,-63.75,-67.5,-52.5,-40.0
1361,-33.75,-97.5,37.5,-11.25,-48.75,-63.75,-63.75,-52.5,-37.083333333333336
1362,-33.75,-93.75,41.25,-3.75,-41.25,-56.25,-56.25,-45,-32.083333333333336
1363,-26.25,-90,45,0,-41.25,-52.5,-56.25,-45,-29.583333333333332
1364,-22.5,-86.25,48.75,3.75,-37.5,-48.75,-48.75,-37.5,-25.416666666666668
1365,-15,-86.25,48.75,11.25,-33.75,-45,-45,-30,-21.666666666666668
1366,-15,-93.75,48.75,7.5,-33.75,-45,-45,-30,-22.916666666666668
1367,-7.5,-93.75,45,0,-37.5,-48.75,-48.75,-33.75,-25.0
1368,-18.75,-105,37.5,-3.75,-41.25,-52.5,-52.5,-33.75,-30.0
1369,-30,-108.75,41.25,-3.75,-37.5,-48.75,-48.75,-33.75,-30.0
1370,-37.5,-112.5,37.5,-7.5,-45,-52.5,-52.5,-37.5,-34.166666666666664
1371,-41.25,-108.75,33.75,-15,-52.5,-56.25,-56.25,-41.25,-37.5
1372,-37.5,-93.75,30,-26.25,-56.25,-60,-60,-45,-38.75
1373,-37.5,-93.75,30,-30,-60,-67.5,-67.5,-52.5,-42.083333333333336
1374,-33.75,-93.75,41.25,-22.5,-63.75,-71.25,-67.5,-52.5,-40.416666666666664
1375,-30,-82.5,41.25,-11.25,-52.5,-63.75,-63.75,-52.5,-35.0
1376,-18.75,-75,45,3.75,-30,-45,-48.75,-37.5,-22.916666666666668
1377,-15,-86.25,48.75,7.5,-33.75,-48.75,-48.75,-33.75,-23.333333333333332
1378,-22.5,-90,52.5,7.5,-33.75,-48.75,-48.75,-30,-23.75
1379,-15,-90,56.25,7.5,-30,-45,-45,-26.25,-20.833333333333332
1380,-15,-86.25,60,11.25,-26.25,-37.5,-41.25,-22.5,-17.5
1381,-18.75,-75,67.5,22.5,-18.75,-33.75,-37.5,-15,-12.083333333333334
1382,-22.5,-63.75,71.25,22.5,-15,-33.75,-37.5,-18.75,-10.833333333333334
1383,-30,-56.25,75,18.75,-18.75,-33.75,-37.5,-22.5,-11.666666666666666
1384,-41.25,-56.25,75,11.25,-26.25,-41.25,-45,-30,-17.083333333333332
1385,-48.75,-56.25,78.75,11.25,-30,-45,-48.75,-33.75,-19.166666666666668
1386,-45,-56.25,82.5,15,-30,-45,-48.75,-33.75,-17.916666666666668
1387,-30,-41.25,90,30,-15,-33.75,-37.5,-26.25,-7.083333333333333
1388,-7.5,-15,101.25,48.75,3.75,-22.5,-26.25,-15,7.5
1389,0,-30,105,56.25,7.5,-15,-18.75,-7.5,10.833333333333334
1390,3.75,-48.75,97.5,48.75,0,-22.5,-26.25,-15,4.166666666666667
1391,0,-52.5,90,41.25,-3.75,-26.25,-26.25,-15,0.8333333333333334
1392,-3.75,-60,93.75,41.25,-3.75,-26.25,-30,-15,-0.4166666666666667
1393,-7.5,-56.25,101.25,45,0,-18.75,-26.25,-11.25,2.9166666666666665
1394,-11.25,-45,108.75,48.75,7.5,-15,-22.5,-7.5,7.083333333333333
1395,-18.75,-37.5,112.5,52.5,7.5,-11.25,-18.75,-7.5,8.75
1396,-18.75,-15,116.25,56.25,11.25,-7.5,-15,-3.75,13.75
1397,-15,7.5,120,56.25,15,-3.75,-11.25,0,18.75
1398,-15,7.5,112.5,52.5,15,-3.75,-11.25,3.75,17.916666666666668
1399,-11.25,7.5,105,48.75,15,-3.75,-7.5,7.5,17.916666666666668
1400,11.25,18.75,97.5,60,22.5,7.5,3.75,18.75,26.666666666666668
1401,30,22.5,90,67.5,33.75,18.75,15,33.75,34.583333333333336
1402,22.5,-3.75,67.5,56.25,26.25,15,11.25,33.75,25.416666666666668
1403,26.25,-15,45,37.5,11.25,3.75,0,22.5,14.583333333333334
1404,37.5,-3.75,48.75,37.5,3.75,3.75,0,26.25,17.083333333333332
1405,41.25,-3.75,52.5,37.5,7.5,0,0,26.25,17.916666666666668
1406,33.75,-11.25,37.5,26.25,0,-3.75,-7.5,18.75,10.416666666666666
1407,30,-15,26.25,11.25,-11.25,-15,-18.75,7.5,1.6666666666666667
1408,18.75,-22.5,22.5,3.75,-18.75,-22.5,-26.25,0,-5.0
1409,22.5,-22.5,11.25,-3.75,-26.25,-30,-33.75,-11.25,-10.416666666666666
1410,37.5,-22.5,7.5,-3.75,-22.5,-30,-33.75,-7.5,-8.333333333333334
1411,41.25,-30,15,0,-22.5,-26.25,-30,-3.75,-6.25
1412,45,-30,26.25,7.5,-15,-22.5,-22.5,0,-1.25
1413,41.25,-37.5,26.25,11.25,-15,-22.5,-22.5,3.75,-1.6666666666666667
1414,37.5,-48.75,22.5,7.5,-18.75,-26.25,-26.25,0,-5.833333333333333
1415,30,-60,26.25,7.5,-18.75,-26.25,-26.25,0,-7.5
1416,18.75,-71.25,30,0,-26.25,-26.25,-30,-3.75,-12.083333333333334
1417,11.25,-75,26.25,3.75,-22.5,-26.25,-30,-3.75,-12.916666666666666
1418,11.25,-63.75,26.25,0,-26.25,-26.25,-30,-3.75,-12.5
1419,0,-60,30,-11.25,-37.5,-37.5,-41.25,-15,-19.166666666666668
1420,-18.75,-60,30,-15,-41.25,-45,-48.75,-26.25,-25.0
1421,-18.75,-56.25,30,-11.25,-33.75,-41.25,-48.75,-26.25,-22.916666666666668
1422,-22.5,-63.75,33.75,-11.25,-33.75,-45,-52.5,-26.25,-24.583333333333332
1423,-30,-75,33.75,-11.25,-37.5,-45,-56.25,-30,-27.916666666666668
1424,-18.75,-78.75,30,-11.25,-41.25,-48.75,-56.25,-30,-28.333333333333332
1425,-15,-90,30,-11.25,-41.25,-48.75,-52.5,-26.25,-28.333333333333332
1426,-15,-97.5,26.25,-18.75,-45,-52.5,-56.25,-30,-32.083333333333336
1427,-22.5,-105,26.25,-22.5,-48.75,-52.5,-56.25,-30,-34.583333333333336
1428,-26.25,-112.5,22.5,-26.25,-56.25,-60,-67.5,-37.5,-40.416666666666664
1429,-30,-127.5,15,-37.5,-67.5,-71.25,-78.75,-48.75,-49.583333333333336
1430,-41.25,-135,11.25,-45,-71.25,-75,-82.5,-52.5,-54.583333333333336
1431,-52.5,-131.25,15,-45,-71.25,-75,-82.5,-52.5,-55.0
1432,-52.5,-123.75,11.25,-48.75,-71.25,-78.75,-86.25,-63.75,-57.083333333333336
1433,-45,-112.5,15,-45,-71.25,-78.75,-90,-67.5,-55.0
1434,-37.5,-105,15,-41.25,-67.5,-75,-86.25,-63.75,-51.25
1435,-33.75,-101.25,11.25,-45,-75,-78.75,-86.25,-63.75,-52.5
1436,-30,-101.25,18.75,-41.25,-71.25,-71.25,-78.75,-52.5,-47.5
1437,-26.25,-108.75,18.75,-30,-60,-63.75,-71.25,-45,-42.916666666666664
1438,-30,-120,18.75,-30,-56.25,-63.75,-71.25,-45,-44.166666666666664
1439,-41.25,-131.25,15,-37.5,-63.75,-71.25,-78.75,-52.5,-51.25
1440,-41.25,-127.5,15,-41.25,-67.5,-71.25,-78.75,-48.75,-51.25
1441,-33.75,-120,18.75,-33.75,-60,-67.5,-71.25,-45,-45.833333333333336
1442,-37.5,-123.75,11.25,-33.75,-60,-67.5,-75,-52.5,-48.75
1443,-45,-123.75,11.25,-41.25,-67.5,-75,-82.5,-60,-53.75
1444,-52.5,-116.25,11.25,-45,-71.25,-78.75,-86.25,-63.75,-55.833333333333336
1445,-52.5,-108.75,15,-41.25,-67.5,-78.75,-86.25,-63.75,-53.75
1446,-48.75,-105,15,-41.25,-63.75,-75,-82.5,-63.75,-51.666666666666664
1447,-45,-101.25,15,-41.25,-63.75,-75,-82.5,-63.75,-50.833333333333336
1448,-37.5,-101.25,18.75,-33.75,-60,-71.25,-75,-56.25,-46.25
1449,-26.25,-108.75,18.75,-30,-56.25,-67.5,-71.25,-48.75,-43.333333333333336
1450,-33.75,-127.5,15,-30,-56.25,-67.5,-71.25,-52.5,-47.083333333333336
1451,-33.75,-135,15,-33.75,-63.75,-75,-78.75,-60,-51.666666666666664
1452,-30,-146.25,26.25,-22.5,-63.75,-78.75,-86.25,-67.5,-52.083333333333336
1453,-30,-161.25,52.5,0,-60,-86.25,-105,-86.25,-52.916666666666664
1454,-26.25,-172.5,105,48.75,-52.5,-101.25,-127.5,-112.5,-48.75
1455,-30,-195,157.5,90,-48.75,-123.75,-157.5,-150,-50.833333333333336
1456,-30,-213.75,206.25,120,-56.25,-153.75,-191.25,-183.75,-55.833333333333336
1457,-30,-225,247.5,161.25,-56.25,-168.75,-213.75,-210,-55.0
1458,-11.25,-206.25,288.75,228.75,-18.75,-150,-202.5,-198.75,-30.0
1459,22.5,-153.75,337.5,307.5,48.75,-101.25,-157.5,-161.25,15.833333333333334
1460,60,-93.75,386.25,397.5,123.75,-37.5,-101.25,-105,70.0
1461,112.5,-45,412.5,472.5,195,26.25,-41.25,-48.75,120.41666666666667
1462,157.5,0,420,517.5,243.75,86.25,18.75,7.5,161.25
1463,195,63.75,435,555,296.25,153.75,90,71.25,206.66666666666666
1464,251.25,142.5,446.25,622.5,382.5,243.75,176.25,153.75,268.75
1465,322.5,240,431.25,693.75,487.5,356.25,292.5,262.5,342.9166666666667
1466,382.5,360,393.75,723.75,573.75,472.5,408.75,378.75,410.4166666666667
1467,435,498.75,341.25,720,648.75,585,532.5,498.75,473.3333333333333
1468,487.5,645,270,712.5,742.5,723.75,678.75,637.5,544.1666666666666
1469,536.25,821.25,243.75,757.5,873.75,888.75,847.5,795,640.4166666666666
1470,555,1031.25,228.75,791.25,1001.25,1061.25,1031.25,978.75,742.0833333333334
1471,588.75,1271.25,116.25,708.75,1072.5,1222.5,1230,1188.75,822.0833333333334
1472,637.5,1485,-22.5,592.5,1128.75,1387.5,1436.25,1406.25,894.5833333333334
1473,682.5,1575,-161.25,446.25,1155,1500,1575,1548.75,924.5833333333334
1474,682.5,1608.75,-311.25,258.75,1151.25,1582.5,1676.25,1646.25,921.6666666666666
1475,618.75,1623.75,-382.5,172.5,1188.75,1668.75,1762.5,1713.75,929.5833333333334
1476,528.75,1563.75,-360,187.5,1260,1740,1796.25,1713.75,936.6666666666666
1477,446.25,1488.75,-352.5,168.75,1301.25,1773.75,1800,1680,922.9166666666666
1478,352.5,1417.5,-397.5,75,1271.25,1743.75,1751.25,1616.25,870.0
1479,255,1290,-461.25,-63.75,1143.75,1597.5,1601.25,1473.75,759.5833333333334
1480,135,1087.5,-453.75,-168.75,956.25,1350,1346.25,1241.25,610.4166666666666
1481,15,873.75,-412.5,-258.75,723.75,1050,1061.25,990,449.1666666666667
1482,-67.5,682.5,-420,-412.5,420,712.5,765,753.75,270.4166666666667
1483,-135,513.75,-453.75,-588.75,105,386.25,483.75,536.25,94.16666666666667
1484,-195,363.75,-457.5,-690,-105,161.25,277.5,363.75,-31.25
1485,-210,240,-423.75,-667.5,-165,52.5,150,232.5,-87.91666666666667
1486,-221.25,105,-405,-607.5,-168.75,0,52.5,120,-125.0
1487,-213.75,22.5,-397.5,-551.25,-150,-18.75,11.25,60,-137.5
1488,-183.75,15,-375,-476.25,-105,7.5,26.25,60,-114.58333333333333
1489,-157.5,18.75,-337.5,-397.5,-71.25,33.75,45,71.25,-88.33333333333333
1490,-146.25,0,-307.5,-356.25,-78.75,18.75,33.75,60,-86.25
1491,-127.5,-15,-273.75,-322.5,-97.5,-11.25,11.25,33.75,-89.16666666666667
1492,-108.75,-7.5,-232.5,-262.5,-82.5,-7.5,3.75,30,-74.16666666666667
1493,-82.5,30,-183.75,-187.5,-37.5,18.75,22.5,45,-41.666666666666664
1494,-60,52.5,-138.75,-112.5,11.25,48.75,48.75,63.75,-9.583333333333334
1495,-37.5,48.75,-90,-45,56.25,75,71.25,82.5,17.916666666666668
1496,-11.25,48.75,-48.75,7.5,86.25,93.75,82.5,90,38.75
1497,11.25,48.75,-11.25,48.75,108.75,105,86.25,93.75,54.583333333333336
1498,3.75,18.75,7.5,60,105,97.5,78.75,86.25,50.833333333333336
1499,-7.5,-7.5,18.75,63.75,97.5,86.25,63.75,71.25,42.916666666666664
1500,0,-15,26.25,67.5,93.75,78.75,52.5,60,40.416666666666664
1501,7.5,-15,33.75,71.25,90,71.25,48.75,52.5,40.0
1502,7.5,-22.5,37.5,67.5,86.25,63.75,41.25,45,36.25
1503,-3.75,-30,33.75,60,75,52.5,26.25,30,27.083333333333332
1504,-7.5,-26.25,33.75,56.25,56.25,37.5,11.25,18.75,20.0
1505,-7.5,-26.25,37.5,56.25,48.75,30,3.75,11.25,17.083333333333332
1506,-7.5,-30,45,67.5,60,30,3.75,11.25,20.0
1507,-11.25,-41.25,45,63.75,52.5,18.75,-3.75,0,13.75
1508,-3.75,-41.25,48.75,67.5,45,15,-7.5,3.75,14.166666666666666
1509,0,-45,48.75,71.25,45,18.75,-3.75,7.5,15.833333333333334
1510,0,-63.75,45,71.25,45,15,-7.5,3.75,12.083333333333334
1511,3.75,-67.5,45,71.25,41.25,11.25,-11.25,3.75,10.833333333333334
1512,0,-60,45,63.75,37.5,11.25,-11.25,3.75,10.0
1513,-7.5,-56.25,48.75,67.5,41.25,11.25,-11.25,3.75,10.833333333333334
1514,-11.25,-67.5,48.75,71.25,33.75,11.25,-11.25,3.75,8.75
1515,0,-67.5,45,71.25,37.5,11.25,-11.25,0,9.583333333333334
1516,0,-63.75,45,67.5,37.5,7.5,-11.25,-3.75,8.75
1517,3.75,-52.5,52.5,67.5,33.75,7.5,-11.25,-3.75,10.833333333333334
1518,7.5,-45,56.25,71.25,33.75,11.25,-11.25,0,13.75
1519,7.5,-48.75,56.25,78.75,45,11.25,-11.25,0,15.416666666666666
1520,18.75,-48.75,60,93.75,52.5,18.75,-3.75,7.5,22.083333333333332
1521,26.25,-48.75,63.75,97.5,56.25,22.5,3.75,15,26.25
1522,22.5,-56.25,56.25,93.75,52.5,18.75,-3.75,15,22.083333333333332
1523,18.75,-60,52.5,86.25,45,18.75,-7.5,11.25,18.333333333333332
1524,22.5,-60,56.25,82.5,41.25,18.75,-3.75,15,19.166666666666668
1525,26.25,-56.25,56.25,93.75,52.5,26.25,3.75,18.75,24.583333333333332
1526,18.75,-56.25,60,97.5,60,30,3.75,18.75,25.833333333333332
1527,22.5,-48.75,56.25,90,52.5,26.25,-3.75,7.5,22.5
1528,22.5,-45,45,82.5,45,18.75,-11.25,0,17.5
1529,15,-48.75,45,78.75,41.25,18.75,-11.25,0,15.416666666666666
1530,15,-48.75,48.75,90,48.75,18.75,-7.5,3.75,18.75
1531,22.5,-41.25,56.25,101.25,60,30,0,11.25,26.666666666666668
1532,37.5,-33.75,67.5,105,63.75,37.5,11.25,22.5,34.583333333333336
1533,45,-37.5,67.5,116.25,71.25,45,18.75,33.75,40.0
1534,41.25,-48.75,56.25,116.25,75,45,18.75,30,37.083333333333336
1535,41.25,-52.5,52.5,112.5,75,45,18.75,30,35.833333333333336
1536,45,-41.25,60,120,78.75,52.5,30,41.25,42.916666666666664
1537,56.25,-26.25,63.75,123.75,86.25,60,33.75,48.75,49.583333333333336
1538,52.5,-33.75,60,120,82.5,56.25,33.75,45,46.25
1539,48.75,-45,52.5,112.5,75,48.75,26.25,33.75,39.166666666666664
1540,37.5,-45,56.25,112.5,75,45,22.5,30,37.083333333333336
1541,45,-30,56.25,116.25,75,48.75,26.25,33.75,41.25
1542,56.25,-18.75,60,123.75,82.5,52.5,30,37.5,47.083333333333336
1543,60,-18.75,63.75,131.25,90,60,33.75,41.25,51.25
1544,63.75,-18.75,60,135,93.75,63.75,37.5,45,53.333333333333336
1545,78.75,-11.25,67.5,146.25,105,75,48.75,56.25,62.916666666666664
1546,75,-22.5,63.75,150,108.75,75,52.5,60,62.5
1547,67.5,-33.75,56.25,138.75,97.5,71.25,45,56.25,55.416666666666664
1548,63.75,-37.5,56.25,138.75,101.25,71.25,48.75,60,55.833333333333336
1549,75,-26.25,60,150,108.75,78.75,56.25,63.75,62.916666666666664
1550,78.75,-11.25,63.75,153.75,112.5,82.5,56.25,67.5,67.08333333333333
1551,75,-7.5,60,146.25,105,78.75,48.75,60,62.916666666666664
1552,63.75,-18.75,52.5,138.75,101.25,75,45,52.5,56.666666666666664
1553,63.75,-18.75,56.25,142.5,105,75,45,48.75,57.5
1554,71.25,-7.5,63.75,153.75,112.5,82.5,56.25,60,65.83333333333333
1555,86.25,7.5,63.75,157.5,120,90,60,63.75,72.08333333333333
1556,101.25,18.75,63.75,168.75,127.5,101.25,67.5,75,80.41666666666667
1557,112.5,18.75,63.75,180,138.75,108.75,78.75,82.5,87.08333333333333
1558,105,7.5,56.25,172.5,131.25,97.5,71.25,78.75,80.0
1559,105,15,56.25,165,127.5,101.25,75,86.25,81.25
1560,105,15,60,168.75,131.25,105,82.5,90,84.16666666666667
1561,101.25,7.5,67.5,180,142.5,112.5,86.25,97.5,88.33333333333333
1562,101.25,7.5,67.5,183.75,146.25,112.5,90,97.5,89.58333333333333
1563,93.75,7.5,60,180,146.25,112.5,86.25,93.75,86.66666666666667
1564,93.75,11.25,56.25,172.5,138.75,108.75,82.5,90,83.75
1565,112.5,33.75,56.25,180,142.5,112.5,82.5,90,90.0
1566,123.75,48.75,63.75,183.75,142.5,120,93.75,97.5,97.08333333333333
1567,127.5,52.5,67.5,183.75,138.75,120,97.5,101.25,98.75
1568,123.75,48.75,67.5,198.75,157.5,127.5,101.25,105,103.33333333333333
1569,127.5,41.25,63.75,206.25,168.75,135,108.75,112.5,107.08333333333333
1570,138.75,33.75,63.75,206.25,165,135,108.75,116.25,107.5
1571,135,26.25,56.25,198.75,157.5,131.25,108.75,112.5,102.91666666666667
1572,135,26.25,56.25,195,153.75,131.25,108.75,116.25,102.5
1573,146.25,37.5,60,198.75,157.5,135,112.5,120,107.5
1574,150,48.75,56.25,206.25,165,142.5,116.25,127.5,112.5
1575,157.5,48.75,48.75,198.75,153.75,135,108.75,120,107.91666666666667
1576,157.5,48.75,52.5,195,150,127.5,105,112.5,105.41666666666667
1577,146.25,52.5,56.25,195,150,131.25,105,112.5,105.41666666666667
1578,135,56.25,56.25,191.25,142.5,127.5,105,112.5,102.91666666666667
1579,142.5,63.75,60,202.5,157.5,135,112.5,120,110.41666666666667
1580,161.25,71.25,63.75,213.75,168.75,142.5,120,131.25,119.16666666666667
1581,172.5,75,63.75,213.75,165,142.5,123.75,138.75,121.66666666666667
1582,172.5,63.75,56.25,210,161.25,142.5,123.75,135,118.33333333333333
1583,180,60,56.25,210,161.25,142.5,127.5,138.75,119.58333333333333
1584,183.75,63.75,56.25,202.5,153.75,138.75,123.75,138.75,117.91666666666667
1585,180,60,52.5,202.5,153.75,138.75,120,138.75,116.25
1586,176.25,60,52.5,198.75,153.75,138.75,120,138.75,115.41666666666667
1587,183.75,71.25,56.25,198.75,150,138.75,123.75,138.75,117.91666666666667
1588,183.75,78.75,56.25,195,150,138.75,120,138.75,117.91666666666667
1589,176.25,75,56.25,195,142.5,131.25,116.25,135,114.16666666666667
1590,183.75,86.25,60,195,138.75,131.25,116.25,135,116.25
1591,198.75,97.5,56.25,191.25,138.75,127.5,116.25,135,117.91666666666667
1592,198.75,97.5,56.25,195,142.5,135,120,142.5,120.83333333333333
1593,206.25,97.5,63.75,206.25,146.25,138.75,127.5,150,126.25
1594,198.75,78.75,63.75,202.5,142.5,131.25,123.75,146.25,120.83333333333333
1595,187.5,67.5,63.75,191.25,135,123.75,116.25,142.5,114.16666666666667
1596,180,67.5,60,183.75,123.75,120,112.5,142.5,110.0
1597,195,82.5,67.5,191.25,127.5,123.75,116.25,146.25,116.66666666666667
1598,198.75,86.25,63.75,187.5,127.5,120,112.5,142.5,115.41666666666667
1599,187.5,75,56.25,176.25,116.25,108.75,101.25,131.25,105.83333333333333
1600,180,78.75,60,172.5,108.75,101.25,97.5,123.75,102.5
1601,180,90,67.5,176.25,108.75,101.25,97.5,120,104.58333333333333
1602,180,90,71.25,176.25,108.75,97.5,93.75,123.75,104.58333333333333
1603,176.25,86.25,75,176.25,105,97.5,93.75,123.75,103.75
1604,176.25,86.25,78.75,183.75,108.75,101.25,97.5,127.5,106.66666666666667
1605,183.75,86.25,86.25,191.25,112.5,105,101.25,131.25,110.83333333333333
1606,180,75,90,191.25,116.25,105,101.25,135,110.41666666666667
1607,172.5,63.75,86.25,180,101.25,93.75,90,123.75,101.25
1608,168.75,63.75,90,172.5,93.75,90,86.25,120,98.33333333333333
1609,161.25,71.25,90,172.5,93.75,90,82.5,120,97.91666666666667
1610,138.75,56.25,93.75,176.25,101.25,90,78.75,112.5,94.16666666666667
1611,131.25,41.25,93.75,168.75,93.75,82.5,67.5,101.25,86.66666666666667
1612,127.5,41.25,90,153.75,71.25,60,52.5,90,76.25
1613,123.75,48.75,93.75,150,71.25,56.25,52.5,82.5,75.41666666666667
1614,116.25,56.25,105,161.25,82.5,63.75,52.5,78.75,79.58333333333333
1615,108.75,52.5,108.75,165,78.75,60,48.75,78.75,77.91666666666667
1616,108.75,41.25,112.5,165,82.5,60,48.75,78.75,77.5
1617,112.5,37.5,120,172.5,86.25,63.75,56.25,86.25,81.66666666666667
1618,108.75,26.25,116.25,165,75,56.25,48.75,78.75,75.0
1619,93.75,11.25,116.25,157.5,71.25,48.75,41.25,71.25,67.91666666666667
1620,86.25,7.5,112.5,150,71.25,45,33.75,63.75,63.333333333333336
1621,82.5,7.5,112.5,150,71.25,45,30,60,62.083333333333336
1622,78.75,7.5,112.5,146.25,67.5,41.25,26.25,56.25,59.583333333333336
1623,63.75,-7.5,112.5,135,52.5,26.25,15,45,49.166666666666664
1624,52.5,-22.5,112.5,131.25,52.5,26.25,11.25,37.5,44.583333333333336
1625,48.75,-11.25,112.5,123.75,48.75,22.5,7.5,33.75,42.916666666666664
1626,45,3.75,116.25,123.75,48.75,22.5,7.5,33.75,44.583333333333336
1627,41.25,-3.75,108.75,123.75,45,18.75,0,26.25,40.0
1628,48.75,-7.5,112.5,123.75,48.75,18.75,0,22.5,40.833333333333336
1629,60,-11.25,116.25,123.75,52.5,18.75,3.75,30,43.75
1630,48.75,-33.75,116.25,120,45,18.75,3.75,33.75,39.166666666666664
1631,37.5,-45,108.75,120,45,18.75,-3.75,26.25,34.166666666666664
1632,33.75,-48.75,112.5,120,48.75,11.25,-7.5,18.75,32.083333333333336
1633,37.5,-48.75,108.75,108.75,33.75,7.5,-11.25,11.25,27.5
1634,26.25,-52.5,105,97.5,26.25,3.75,-15,11.25,22.5
1635,11.25,-48.75,101.25,93.75,26.25,0,-18.75,3.75,18.75
1636,7.5,-45,101.25,82.5,22.5,-7.5,-26.25,-3.75,14.583333333333334
1637,3.75,-45,97.5,82.5,18.75,-11.25,-30,-11.25,11.666666666666666
1638,3.75,-45,101.25,86.25,18.75,-7.5,-26.25,-7.5,13.75
1639,3.75,-52.5,105,82.5,22.5,-7.5,-26.25,-7.5,13.333333333333334
1640,7.5,-48.75,105,86.25,22.5,-7.5,-26.25,-7.5,14.583333333333334
1641,15,-45,105,90,22.5,-11.25,-26.25,-3.75,16.25
1642,11.25,-60,97.5,82.5,15,-15,-30,-3.75,10.833333333333334
1643,3.75,-75,93.75,71.25,11.25,-18.75,-33.75,-11.25,4.583333333333333
1644,-7.5,-78.75,93.75,67.5,11.25,-18.75,-37.5,-11.25,2.0833333333333335
1645,-15,-78.75,93.75,67.5,11.25,-18.75,-37.5,-11.25,1.25
1646,-11.25,-82.5,93.75,60,3.75,-22.5,-41.25,-15,-1.6666666666666667
1647,-18.75,-93.75,86.25,48.75,-3.75,-30,-48.75,-22.5,-9.166666666666666
1648,-30,-86.25,86.25,52.5,-3.75,-30,-48.75,-26.25,-9.583333333333334
1649,-26.25,-67.5,82.5,45,-7.5,-33.75,-52.5,-30,-10.0
1650,-22.5,-71.25,86.25,41.25,-15,-37.5,-56.25,-33.75,-12.083333333333334
1651,-26.25,-86.25,86.25,41.25,-18.75,-41.25,-60,-37.5,-15.833333333333334
1652,-15,-82.5,90,45,-15,-37.5,-52.5,-30,-10.833333333333334
1653,-3.75,-71.25,90,52.5,-7.5,-30,-48.75,-22.5,-4.583333333333333
1654,-11.25,-75,86.25,56.25,0,-30,-48.75,-22.5,-5.0
1655,-18.75,-97.5,86.25,48.75,-3.75,-33.75,-52.5,-26.25,-10.833333333333334
1656,-26.25,-108.75,82.5,41.25,-11.25,-41.25,-56.25,-33.75,-17.083333333333332
1657,-30,-108.75,82.5,41.25,-15,-41.25,-60,-33.75,-18.333333333333332
1658,-41.25,-108.75,82.5,41.25,-15,-37.5,-56.25,-30,-18.333333333333332
1659,-56.25,-120,71.25,22.5,-30,-48.75,-63.75,-41.25,-29.583333333333332
1660,-52.5,-123.75,71.25,26.25,-26.25,-45,-63.75,-41.25,-28.333333333333332
1661,-30,-101.25,78.75,41.25,-7.5,-33.75,-52.5,-37.5,-15.833333333333334
1662,-18.75,-71.25,86.25,48.75,0,-26.25,-45,-30,-6.25
1663,-18.75,-67.5,93.75,52.5,3.75,-22.5,-45,-26.25,-3.3333333333333335
1664,-18.75,-75,93.75,56.25,11.25,-18.75,-37.5,-18.75,-0.8333333333333334
1665,-11.25,-78.75,93.75,63.75,15,-11.25,-33.75,-11.25,2.9166666666666665
1666,-11.25,-90,90,67.5,15,-11.25,-30,-11.25,2.0833333333333335
1667,-18.75,-101.25,86.25,60,7.5,-15,-33.75,-15,-3.3333333333333335
1668,-22.5,-101.25,82.5,56.25,7.5,-15,-37.5,-15,-5.0
1669,-15,-93.75,82.5,52.5,3.75,-15,-37.5,-15,-4.166666666666667
1670,-26.25,-101.25,82.5,48.75,0,-18.75,-37.5,-18.75,-7.916666666666667
1671,-33.75,-105,78.75,52.5,3.75,-15,-41.25,-22.5,-9.166666666666666
1672,-26.25,-93.75,78.75,48.75,3.75,-22.5,-45,-26.25,-9.166666666666666
1673,-22.5,-78.75,78.75,48.75,0,-26.25,-45,-30,-8.333333333333334
1674,-18.75,-63.75,86.25,60,11.25,-15,-37.5,-22.5,0.0
1675,-18.75,-63.75,86.25,63.75,15,-11.25,-30,-18.75,2.5
1676,-7.5,-63.75,90,63.75,15,-11.25,-30,-15,4.583333333333333
1677,0,-71.25,93.75,67.5,15,-7.5,-26.25,-7.5,7.083333333333333
1678,-7.5,-90,86.25,71.25,18.75,-7.5,-26.25,-7.5,4.166666666666667
1679,-11.25,-97.5,82.5,63.75,15,-11.25,-30,-15,-0.4166666666666667
1680,-11.25,-93.75,78.75,60,11.25,-11.25,-30,-11.25,-0.8333333333333334
1681,-11.25,-86.25,82.5,60,7.5,-7.5,-26.25,-7.5,1.25
1682,-15,-90,86.25,63.75,15,-3.75,-22.5,-7.5,2.9166666666666665
1683,-11.25,-82.5,82.5,63.75,18.75,-7.5,-26.25,-15,2.5
1684,-15,-75,71.25,52.5,3.75,-18.75,-37.5,-26.25,-5.0
1685,-30,-75,75,45,-3.75,-22.5,-41.25,-30,-9.166666666666666
1686,-30,-71.25,75,48.75,0,-22.5,-41.25,-33.75,-8.333333333333334
1687,-22.5,-67.5,75,56.25,7.5,-18.75,-37.5,-30,-4.166666666666667
1688,-18.75,-67.5,78.75,63.75,15,-11.25,-30,-22.5,0.8333333333333334
1689,-3.75,-63.75,86.25,75,26.25,-3.75,-22.5,-15,8.75
1690,-11.25,-75,86.25,78.75,30,0,-18.75,-7.5,9.166666666666666
1691,-18.75,-82.5,82.5,71.25,22.5,-3.75,-18.75,-7.5,5.0
1692,-15,-90,82.5,67.5,18.75,-3.75,-18.75,-7.5,3.75
1693,-15,-90,82.5,67.5,18.75,-7.5,-22.5,-11.25,2.5
1694,-15,-78.75,82.5,67.5,22.5,-3.75,-22.5,-11.25,4.583333333333333
1695,-11.25,-82.5,78.75,63.75,15,-7.5,-26.25,-15,1.6666666666666667
1696,-15,-90,71.25,52.5,7.5,-15,-33.75,-22.5,-5.0
1697,-33.75,-82.5,75,52.5,7.5,-15,-33.75,-26.25,-6.25
1698,-22.5,-60,78.75,60,15,-7.5,-26.25,-18.75,2.0833333333333335
1699,-18.75,-63.75,75,60,15,-11.25,-26.25,-22.5,0.8333333333333334
1700,-11.25,-67.5,75,60,15,-7.5,-26.25,-18.75,2.0833333333333335
1701,3.75,-63.75,82.5,71.25,22.5,0,-18.75,-3.75,10.416666666666666
1702,0,-71.25,82.5,67.5,26.25,3.75,-11.25,0,10.833333333333334
1703,-7.5,-75,78.75,60,15,-3.75,-15,-3.75,5.416666666666667
1704,-7.5,-75,75,56.25,11.25,-7.5,-18.75,-3.75,3.3333333333333335
1705,-11.25,-78.75,71.25,56.25,15,-3.75,-18.75,-7.5,2.5
1706,-11.25,-75,71.25,60,18.75,0,-15,-3.75,5.0
1707,-15,-78.75,67.5,48.75,7.5,-7.5,-22.5,-11.25,-1.25
1708,-30,-90,60,33.75,-7.5,-22.5,-37.5,-26.25,-13.333333333333334
1709,-33.75,-82.5,63.75,37.5,-3.75,-18.75,-37.5,-26.25,-11.25
1710,-30,-71.25,67.5,41.25,3.75,-18.75,-37.5,-26.25,-7.916666666666667
1711,-18.75,-67.5,63.75,37.5,-3.75,-18.75,-37.5,-26.25,-7.916666666666667
1712,-11.25,-63.75,60,41.25,-3.75,-18.75,-37.5,-22.5,-6.25
1713,-7.5,-63.75,67.5,52.5,11.25,-7.5,-22.5,-11.25,2.0833333333333335
1714,-15,-82.5,67.5,52.5,7.5,-7.5,-22.5,-11.25,-1.25
1715,-22.5,-93.75,67.5,41.25,-3.75,-15,-30,-15,-7.916666666666667
1716,-15,-82.5,63.75,37.5,0,-18.75,-30,-15,-6.666666666666667
1717,-3.75,-71.25,67.5,48.75,11.25,-7.5,-22.5,-7.5,1.6666666666666667
1718,-3.75,-71.25,71.25,52.5,7.5,-3.75,-22.5,-3.75,2.9166666666666665
1719,-15,-75,63.75,41.25,0,-11.25,-30,-18.75,-5.0
1720,-22.5,-75,56.25,30,-7.5,-18.75,-37.5,-26.25,-11.25
1721,-26.25,-75,48.75,22.5,-15,-30,-45,-33.75,-17.083333333333332
1722,-18.75,-67.5,52.5,22.5,-18.75,-30,-45,-33.75,-15.416666666666666
1723,-18.75,-67.5,56.25,26.25,-15,-26.25,-41.25,-30,-12.916666666666666
1724,-11.25,-67.5,60,33.75,-3.75,-18.75,-30,-22.5,-6.666666666666667
1725,-7.5,-71.25,63.75,37.5,-7.5,-15,-30,-18.75,-5.416666666666667
1726,-15,-82.5,60,33.75,-11.25,-18.75,-30,-15,-8.75
1727,-15,-90,52.5,30,-7.5,-22.5,-37.5,-18.75,-12.083333333333334
1728,-11.25,-86.25,48.75,26.25,-11.25,-22.5,-37.5,-18.75,-12.5
1729,-7.5,-78.75,56.25,33.75,-7.5,-15,-30,-11.25,-6.666666666666667
1730,-18.75,-86.25,56.25,33.75,-3.75,-15,-26.25,-11.25,-7.916666666666667
1731,-30,-93.75,52.5,26.25,-15,-22.5,-33.75,-18.75,-15.0
1732,-33.75,-97.5,48.75,18.75,-22.5,-30,-41.25,-26.25,-20.416666666666668
1733,-30,-93.75,41.25,11.25,-30,-37.5,-52.5,-37.5,-25.416666666666668
1734,-22.5,-71.25,45,15,-22.5,-30,-45,-30,-17.916666666666668
1735,-22.5,-63.75,45,15,-22.5,-33.75,-45,-33.75,-17.916666666666668
1736,-26.25,-71.25,45,15,-18.75,-33.75,-45,-33.75,-18.75
1737,-18.75,-75,52.5,22.5,-15,-26.25,-37.5,-22.5,-13.333333333333334
1738,-11.25,-82.5,52.5,22.5,-22.5,-26.25,-37.5,-18.75,-13.75
1739,-18.75,-93.75,45,15,-26.25,-30,-45,-26.25,-20.0
1740,-30,-97.5,45,18.75,-15,-22.5,-37.5,-18.75,-17.5
1741,-37.5,-101.25,45,11.25,-22.5,-30,-45,-22.5,-22.5
1742,-26.25,-90,45,7.5,-33.75,-37.5,-45,-26.25,-22.916666666666668
1743,-26.25,-90,37.5,3.75,-33.75,-37.5,-48.75,-30,-25.0
1744,-30,-90,33.75,0,-33.75,-41.25,-56.25,-41.25,-28.75
1745,-33.75,-86.25,33.75,-3.75,-37.5,-45,-56.25,-41.25,-30.0
1746,-30,-82.5,33.75,-11.25,-45,-48.75,-56.25,-41.25,-31.25
1747,-26.25,-86.25,33.75,-7.5,-41.25,-45,-56.25,-41.25,-30.0
1748,-26.25,-90,37.5,3.75,-33.75,-41.25,-52.5,-37.5,-26.666666666666668
1749,-18.75,-82.5,37.5,7.5,-26.25,-33.75,-45,-30,-21.25
1750,-15,-86.25,37.5,7.5,-26.25,-33.75,-45,-22.5,-20.416666666666668
1751,-15,-90,37.5,3.75,-30,-33.75,-45,-22.5,-21.666666666666668
1752,-11.25,-90,33.75,-3.75,-37.5,-37.5,-48.75,-30,-25.0
1753,-18.75,-97.5,37.5,0,-33.75,-37.5,-48.75,-26.25,-25.0
1754,-22.5,-97.5,37.5,0,-37.5,-41.25,-48.75,-26.25,-26.25
1755,-33.75,-105,30,-11.25,-45,-45,-60,-33.75,-33.75
1756,-48.75,-112.5,22.5,-18.75,-52.5,-52.5,-63.75,-45,-41.25
1757,-30,-90,26.25,-15,-48.75,-52.5,-63.75,-45,-35.416666666666664
1758,-15,-71.25,37.5,-7.5,-45,-48.75,-63.75,-45,-28.75
1759,-26.25,-78.75,33.75,-7.5,-45,-48.75,-63.75,-45,-31.25
1760,-30,-82.5,33.75,-3.75,-45,-48.75,-63.75,-41.25,-31.25
1761,-22.5,-82.5,41.25,0,-37.5,-41.25,-52.5,-30,-25.0
1762,-22.5,-90,33.75,-3.75,-37.5,-41.25,-52.5,-30,-27.083333333333332
1763,-30,-108.75,30,-15,-48.75,-45,-56.25,-33.75,-34.166666666666664
1764,-30,-108.75,30,-11.25,-52.5,-48.75,-56.25,-30,-34.166666666666664
1765,-22.5,-101.25,30,-3.75,-41.25,-45,-52.5,-30,-29.583333333333332
1766,-26.25,-105,26.25,-11.25,-45,-48.75,-60,-30,-33.333333333333336
1767,-26.25,-101.25,26.25,-15,-52.5,-52.5,-63.75,-33.75,-35.416666666666664
1768,-26.25,-97.5,22.5,-18.75,-52.5,-56.25,-67.5,-45,-37.916666666666664
1769,-33.75,-93.75,22.5,-26.25,-56.25,-60,-67.5,-48.75,-40.416666666666664
1770,-33.75,-86.25,26.25,-22.5,-52.5,-56.25,-67.5,-45,-37.5
1771,-30,-90,30,-15,-45,-52.5,-63.75,-41.25,-34.166666666666664
1772,-30,-90,30,-18.75,-52.5,-56.25,-63.75,-41.25,-35.833333333333336
1773,-26.25,-90,37.5,-11.25,-52.5,-48.75,-56.25,-37.5,-31.666666666666668
1774,-18.75,-90,37.5,3.75,-37.5,-41.25,-52.5,-30,-25.416666666666668
1775,-15,-75,33.75,3.75,-33.75,-37.5,-48.75,-26.25,-22.083333333333332
1776,-15,-67.5,41.25,3.75,-30,-30,-41.25,-18.75,-17.5
1777,-18.75,-75,52.5,11.25,-18.75,-22.5,-37.5,-15,-13.75
1778,-22.5,-71.25,60,18.75,-18.75,-26.25,-37.5,-15,-12.5
1779,-33.75,-71.25,60,15,-22.5,-30,-41.25,-18.75,-15.833333333333334
1780,-41.25,-75,56.25,7.5,-26.25,-37.5,-48.75,-26.25,-21.25
1781,-37.5,-56.25,63.75,11.25,-26.25,-33.75,-48.75,-30,-17.5
1782,-30,-33.75,71.25,15,-26.25,-33.75,-48.75,-26.25,-12.5
1783,-22.5,-30,75,22.5,-18.75,-26.25,-41.25,-22.5,-7.083333333333333
1784,-15,-37.5,78.75,30,-11.25,-22.5,-37.5,-18.75,-3.75
1785,-3.75,-41.25,86.25,37.5,-7.5,-18.75,-26.25,-7.5,2.0833333333333335
1786,7.5,-41.25,90,48.75,0,-7.5,-18.75,0,8.75
1787,7.5,-45,90,52.5,7.5,-3.75,-15,0,10.416666666666666
1788,3.75,-48.75,90,41.25,-7.5,-7.5,-22.5,-3.75,5.0
1789,-11.25,-52.5,97.5,48.75,0,-3.75,-15,0,7.083333333333333
1790,-18.75,-48.75,101.25,52.5,7.5,-3.75,-15,0,8.333333333333334
1791,-22.5,-37.5,108.75,52.5,3.75,0,-11.25,3.75,10.833333333333334
1792,-26.25,-26.25,108.75,48.75,3.75,0,-15,0,10.416666666666666
1793,-15,-3.75,105,48.75,7.5,0,-18.75,-3.75,13.333333333333334
1794,-7.5,11.25,101.25,52.5,11.25,3.75,-11.25,3.75,18.333333333333332
1795,-15,3.75,93.75,48.75,7.5,3.75,-7.5,7.5,15.833333333333334
1796,-7.5,7.5,86.25,52.5,11.25,7.5,0,11.25,18.75
1797,11.25,15,82.5,56.25,22.5,15,7.5,22.5,25.833333333333332
1798,30,3.75,67.5,56.25,22.5,18.75,7.5,30,26.25
1799,37.5,-7.5,52.5,45,18.75,15,7.5,26.25,21.666666666666668
1800,41.25,0,45,37.5,11.25,11.25,3.75,26.25,19.583333333333332
1801,41.25,3.75,41.25,33.75,3.75,7.5,0,26.25,17.5
1802,37.5,-3.75,33.75,33.75,7.5,7.5,0,22.5,15.416666666666666
1803,37.5,-15,22.5,22.5,0,0,-11.25,15,7.916666666666667
1804,26.25,-22.5,18.75,7.5,-15,-7.5,-18.75,7.5,-0.4166666666666667
1805,18.75,-30,11.25,-7.5,-26.25,-22.5,-26.25,-3.75,-9.583333333333334
1806,18.75,-37.5,3.75,-7.5,-30,-26.25,-33.75,-15,-14.166666666666666
1807,22.5,-33.75,3.75,-11.25,-33.75,-30,-37.5,-15,-15.0
1808,26.25,-33.75,7.5,-7.5,-30,-26.25,-33.75,-11.25,-12.083333333333334
1809,33.75,-45,7.5,0,-26.25,-22.5,-30,-3.75,-9.583333333333334
1810,33.75,-52.5,15,0,-22.5,-18.75,-22.5,3.75,-7.083333333333333
1811,33.75,-48.75,18.75,0,-26.25,-18.75,-22.5,3.75,-6.666666666666667
1812,33.75,-52.5,18.75,-3.75,-30,-18.75,-26.25,3.75,-8.333333333333334
1813,26.25,-63.75,26.25,0,-26.25,-15,-22.5,7.5,-7.5
1814,11.25,-71.25,26.25,3.75,-18.75,-11.25,-22.5,3.75,-8.75
1815,-3.75,-75,15,-11.25,-33.75,-26.25,-37.5,-11.25,-20.416666666666668
1816,-11.25,-75,11.25,-18.75,-45,-41.25,-52.5,-26.25,-28.75
1817,-15,-67.5,15,-18.75,-45,-41.25,-52.5,-26.25,-27.916666666666668
1818,-15,-63.75,15,-26.25,-56.25,-45,-60,-30,-31.25
1819,-15,-63.75,15,-22.5,-52.5,-48.75,-60,-37.5,-31.666666666666668
1820,-18.75,-71.25,11.25,-22.5,-52.5,-52.5,-67.5,-41.25,-35.0
1821,-18.75,-82.5,15,-22.5,-56.25,-56.25,-67.5,-37.5,-36.25
1822,-22.5,-101.25,11.25,-26.25,-56.25,-56.25,-63.75,-33.75,-38.75
1823,-30,-108.75,15,-22.5,-52.5,-48.75,-60,-30,-37.5
1824,-37.5,-120,15,-26.25,-56.25,-52.5,-63.75,-33.75,-41.666666666666664
1825,-41.25,-131.25,15,-26.25,-60,-56.25,-63.75,-33.75,-44.166666666666664
1826,-41.25,-127.5,15,-30,-60,-56.25,-63.75,-37.5,-44.583333333333336
1827,-52.5,-127.5,15,-37.5,-67.5,-60,-67.5,-41.25,-48.75
1828,-56.25,-135,3.75,-56.25,-86.25,-78.75,-86.25,-60,-61.666666666666664
1829,-48.75,-123.75,0,-52.5,-78.75,-75,-82.5,-60,-57.916666666666664
1830,-41.25,-112.5,3.75,-48.75,-71.25,-71.25,-82.5,-56.25,-53.333333333333336
1831,-37.5,-108.75,0,-52.5,-78.75,-75,-82.5,-56.25,-54.583333333333336
1832,-41.25,-108.75,3.75,-45,-75,-71.25,-78.75,-52.5,-52.083333333333336
1833,-41.25,-112.5,11.25,-41.25,-71.25,-67.5,-75,-45,-49.166666666666664
1834,-33.75,-116.25,11.25,-30,-60,-60,-71.25,-41.25,-44.583333333333336
1835,-30,-123.75,3.75,-33.75,-63.75,-63.75,-75,-45,-47.916666666666664
1836,-33.75,-127.5,3.75,-37.5,-67.5,-67.5,-78.75,-45,-50.416666666666664
1837,-30,-123.75,7.5,-37.5,-67.5,-63.75,-75,-45,-48.333333333333336
1838,-26.25,-123.75,7.5,-33.75,-63.75,-63.75,-75,-41.25,-46.666666666666664
1839,-37.5,-131.25,0,-45,-71.25,-71.25,-82.5,-52.5,-54.583333333333336
1840,-52.5,-135,-3.75,-52.5,-78.75,-78.75,-90,-60,-61.25
1841,-45,-116.25,0,-48.75,-75,-75,-86.25,-60,-56.25
1842,-37.5,-105,3.75,-45,-75,-71.25,-82.5,-56.25,-52.083333333333336
1843,-41.25,-108.75,7.5,-45,-71.25,-71.25,-82.5,-56.25,-52.083333333333336
1844,-37.5,-108.75,7.5,-45,-71.25,-71.25,-82.5,-56.25,-51.666666666666664
1845,-22.5,-101.25,15,-33.75,-60,-63.75,-75,-48.75,-43.333333333333336
1846,-22.5,-116.25,11.25,-30,-60,-67.5,-75,-45,-45.0
1847,-41.25,-138.75,0,-41.25,-75,-78.75,-90,-60,-58.333333333333336
1848,-45,-146.25,3.75,-41.25,-78.75,-82.5,-97.5,-71.25,-62.083333333333336
1849,-41.25,-161.25,30,-22.5,-78.75,-90,-105,-78.75,-60.833333333333336
