samplenr,I,II,V1,V2,V3,V4,V5,V6,measurement
0,-26.25,-26.25,-3.75,-22.5,37.5,3.75,0,11.25,-2.9166666666666665
1,-33.75,-37.5,0,-18.75,33.75,0,-3.75,7.5,-5.833333333333333
2,-41.25,-52.5,3.75,-15,30,-7.5,-7.5,3.75,-9.583333333333334
3,-33.75,-56.25,0,-18.75,22.5,-15,-18.75,-3.75,-13.75
4,-30,-56.25,3.75,-22.5,15,-22.5,-26.25,-11.25,-16.666666666666668
5,-45,-60,3.75,-22.5,15,-22.5,-26.25,-11.25,-18.75
6,-52.5,-71.25,3.75,-26.25,11.25,-30,-33.75,-15,-23.75
7,-30,-75,0,-30,3.75,-37.5,-41.25,-22.5,-25.833333333333332
8,-26.25,-67.5,0,-33.75,0,-41.25,-45,-26.25,-26.666666666666668
9,-30,-60,7.5,-30,0,-41.25,-48.75,-26.25,-25.416666666666668
10,-30,-60,7.5,-30,0,-41.25,-48.75,-26.25,-25.416666666666668
11,-45,-67.5,3.75,-30,-7.5,-45,-52.5,-30,-30.416666666666668
12,-41.25,-63.75,7.5,-26.25,-3.75,-45,-48.75,-26.25,-27.5
13,-30,-56.25,15,-15,3.75,-37.5,-37.5,-15,-19.166666666666668
14,-33.75,-71.25,15,-15,3.75,-37.5,-41.25,-18.75,-22.083333333333332
15,-33.75,-82.5,3.75,-22.5,-3.75,-48.75,-52.5,-26.25,-29.583333333333332
16,-18.75,-75,0,-30,-11.25,-52.5,-56.25,-30,-30.416666666666668
17,7.5,-56.25,3.75,-26.25,-7.5,-45,-52.5,-26.25,-22.5
18,11.25,-48.75,7.5,-18.75,0,-41.25,-45,-18.75,-17.083333333333332
19,-3.75,-52.5,7.5,-22.5,-3.75,-45,-48.75,-22.5,-21.25
20,-22.5,-60,7.5,-26.25,-7.5,-48.75,-52.5,-26.25,-26.25
21,-22.5,-60,3.75,-30,-11.25,-48.75,-52.5,-26.25,-27.5
22,-15,-52.5,11.25,-22.5,-3.75,-41.25,-45,-22.5,-21.25
23,-11.25,-45,18.75,-11.25,3.75,-33.75,-37.5,-18.75,-15.0
24,-3.75,-45,18.75,-7.5,11.25,-30,-37.5,-15,-12.083333333333334
25,-7.5,-48.75,15,-7.5,7.5,-33.75,-41.25,-15,-14.583333333333334
26,-26.25,-60,11.25,-3.75,11.25,-33.75,-37.5,-15,-17.083333333333332
27,-22.5,-71.25,0,-11.25,3.75,-41.25,-41.25,-18.75,-22.5
28,-15,-78.75,0,-15,0,-41.25,-48.75,-18.75,-24.166666666666668
29,-26.25,-78.75,7.5,-7.5,7.5,-33.75,-41.25,-15,-20.833333333333332
30,-15,-67.5,11.25,-7.5,11.25,-30,-41.25,-15,-17.083333333333332
31,-3.75,-67.5,3.75,-15,0,-37.5,-45,-22.5,-20.833333333333332
32,-18.75,-75,-3.75,-18.75,0,-37.5,-45,-22.5,-24.583333333333332
33,-52.5,-93.75,-7.5,-22.5,-3.75,-41.25,-48.75,-30,-33.333333333333336
34,-41.25,-82.5,-7.5,-22.5,0,-41.25,-48.75,-30,-30.416666666666668
35,-7.5,-56.25,-3.75,-11.25,7.5,-30,-37.5,-18.75,-17.5
36,11.25,-41.25,7.5,-3.75,18.75,-22.5,-26.25,-7.5,-7.083333333333333
37,48.75,-3.75,22.5,18.75,37.5,-3.75,-7.5,15,14.166666666666666
38,75,15,26.25,30,45,3.75,0,22.5,24.166666666666668
39,56.25,-7.5,15,18.75,37.5,-3.75,-7.5,15,13.75
40,33.75,-30,3.75,11.25,30,-11.25,-15,7.5,3.3333333333333335
41,60,-11.25,7.5,11.25,30,-11.25,-11.25,15,10.0
42,63.75,0,11.25,15,37.5,-7.5,-7.5,18.75,14.583333333333334
43,26.25,-22.5,7.5,15,37.5,-7.5,-7.5,15,7.083333333333333
44,18.75,-30,0,11.25,33.75,-11.25,-11.25,7.5,2.0833333333333335
45,22.5,-26.25,3.75,11.25,33.75,-7.5,-11.25,7.5,3.75
46,15,-26.25,3.75,15,33.75,-3.75,-7.5,11.25,4.583333333333333
47,18.75,-30,3.75,18.75,37.5,-3.75,-7.5,15,5.833333333333333
48,30,-30,0,15,33.75,-3.75,-7.5,15,5.833333333333333
49,37.5,-15,3.75,26.25,45,3.75,0,26.25,14.166666666666666
50,45,-7.5,11.25,37.5,56.25,15,11.25,37.5,22.916666666666668
51,63.75,0,11.25,37.5,60,18.75,15,45,27.916666666666668
52,63.75,3.75,3.75,33.75,52.5,11.25,11.25,37.5,24.166666666666668
53,45,-18.75,-7.5,22.5,45,3.75,0,26.25,12.916666666666666
54,48.75,-26.25,-11.25,22.5,45,3.75,3.75,26.25,12.5
55,60,-18.75,3.75,33.75,60,18.75,18.75,41.25,24.166666666666668
56,52.5,-18.75,0,30,52.5,15,11.25,33.75,19.583333333333332
57,48.75,0,-7.5,22.5,48.75,7.5,7.5,26.25,17.083333333333332
58,67.5,18.75,-3.75,30,52.5,11.25,7.5,30,23.75
59,71.25,18.75,-11.25,26.25,48.75,7.5,3.75,22.5,20.833333333333332
60,56.25,3.75,-15,30,52.5,7.5,3.75,22.5,17.916666666666668
61,56.25,3.75,-7.5,45,63.75,18.75,15,37.5,25.833333333333332
62,71.25,11.25,-3.75,48.75,67.5,26.25,22.5,45,32.083333333333336
63,82.5,15,-7.5,45,67.5,22.5,22.5,48.75,32.916666666666664
64,82.5,18.75,-11.25,37.5,60,22.5,18.75,45,30.416666666666668
65,82.5,22.5,-15,41.25,63.75,22.5,22.5,48.75,32.083333333333336
66,75,22.5,-11.25,48.75,67.5,26.25,26.25,48.75,33.75
67,97.5,22.5,-18.75,41.25,67.5,26.25,26.25,48.75,34.583333333333336
68,105,15,-18.75,41.25,63.75,22.5,26.25,45,33.333333333333336
69,97.5,18.75,-15,45,63.75,26.25,30,48.75,35.0
70,97.5,22.5,-11.25,45,67.5,30,33.75,52.5,37.5
71,90,7.5,-22.5,37.5,60,22.5,26.25,48.75,30.0
72,101.25,26.25,-18.75,48.75,67.5,33.75,37.5,60,39.583333333333336
73,138.75,71.25,0,71.25,90,52.5,60,82.5,62.916666666666664
74,161.25,75,0,75,90,52.5,63.75,86.25,67.08333333333333
75,168.75,71.25,-11.25,67.5,82.5,48.75,60,86.25,63.75
76,161.25,67.5,-18.75,60,78.75,48.75,60,86.25,60.416666666666664
77,146.25,60,-22.5,56.25,78.75,48.75,60,86.25,57.083333333333336
78,150,56.25,-30,56.25,75,48.75,60,86.25,55.833333333333336
79,138.75,45,-37.5,45,67.5,37.5,48.75,75,46.666666666666664
80,112.5,26.25,-37.5,37.5,56.25,30,45,71.25,37.916666666666664
81,112.5,33.75,-37.5,37.5,60,33.75,48.75,75,40.416666666666664
82,135,60,-33.75,45,63.75,41.25,56.25,82.5,50.0
83,153.75,75,-30,48.75,67.5,41.25,56.25,86.25,55.416666666666664
84,153.75,78.75,-26.25,52.5,71.25,41.25,56.25,90,57.5
85,161.25,78.75,-18.75,63.75,78.75,48.75,63.75,101.25,64.16666666666667
86,180,78.75,-30,60,75,45,63.75,97.5,63.333333333333336
87,172.5,63.75,-41.25,48.75,60,33.75,52.5,86.25,52.916666666666664
88,157.5,56.25,-41.25,45,60,30,52.5,90,50.0
89,161.25,60,-33.75,48.75,63.75,37.5,60,97.5,55.0
90,172.5,75,-33.75,48.75,63.75,37.5,60,101.25,58.333333333333336
91,176.25,86.25,-41.25,45,56.25,33.75,56.25,97.5,56.666666666666664
92,165,82.5,-41.25,37.5,48.75,26.25,52.5,90,51.25
93,176.25,93.75,-26.25,48.75,56.25,37.5,60,97.5,60.416666666666664
94,187.5,105,-22.5,52.5,63.75,45,67.5,105,67.08333333333333
95,172.5,97.5,-26.25,48.75,56.25,37.5,63.75,101.25,61.25
96,176.25,105,-22.5,56.25,60,41.25,63.75,108.75,65.41666666666667
97,195,112.5,-26.25,60,63.75,37.5,63.75,108.75,68.33333333333333
98,202.5,105,-26.25,60,60,33.75,60,108.75,67.08333333333333
99,183.75,90,-22.5,56.25,56.25,30,56.25,108.75,62.083333333333336
100,183.75,90,-18.75,56.25,52.5,30,56.25,105,61.666666666666664
101,195,93.75,-15,56.25,52.5,30,60,108.75,64.58333333333333
102,191.25,90,-18.75,52.5,48.75,26.25,52.5,105,60.833333333333336
103,157.5,75,-15,52.5,48.75,22.5,52.5,101.25,55.0
104,127.5,45,-30,33.75,30,7.5,37.5,82.5,37.083333333333336
105,131.25,41.25,-30,26.25,18.75,0,26.25,71.25,31.666666666666668
106,135,63.75,-15,37.5,30,11.25,37.5,82.5,42.5
107,138.75,78.75,-15,41.25,30,7.5,37.5,86.25,45.0
108,176.25,105,-7.5,48.75,37.5,15,45,93.75,57.083333333333336
109,202.5,135,3.75,71.25,56.25,30,56.25,105,73.33333333333333
110,183.75,120,7.5,75,56.25,30,52.5,105,70.0
111,153.75,78.75,-3.75,56.25,37.5,7.5,33.75,82.5,49.583333333333336
112,150,71.25,3.75,56.25,33.75,3.75,30,78.75,47.5
113,142.5,75,3.75,56.25,30,-3.75,22.5,75,44.583333333333336
114,116.25,60,3.75,48.75,26.25,-7.5,18.75,67.5,37.083333333333336
115,120,60,3.75,45,18.75,-15,11.25,60,33.75
116,131.25,63.75,7.5,41.25,15,-18.75,3.75,48.75,32.5
117,123.75,63.75,15,41.25,15,-22.5,3.75,45,31.666666666666668
118,131.25,75,22.5,48.75,22.5,-15,7.5,52.5,38.333333333333336
119,120,56.25,26.25,48.75,22.5,-18.75,0,45,33.333333333333336
120,105,45,30,45,18.75,-26.25,-7.5,33.75,27.083333333333332
121,105,60,41.25,60,30,-18.75,3.75,45,36.25
122,82.5,45,33.75,56.25,22.5,-22.5,-3.75,37.5,27.916666666666668
123,60,22.5,30,45,15,-30,-15,22.5,16.666666666666668
124,41.25,11.25,33.75,41.25,15,-30,-18.75,18.75,12.5
125,22.5,-7.5,33.75,33.75,7.5,-37.5,-26.25,11.25,4.166666666666667
126,11.25,-26.25,26.25,26.25,0,-45,-33.75,3.75,-4.166666666666667
127,7.5,-37.5,26.25,15,-11.25,-56.25,-41.25,0,-10.833333333333334
128,0,-45,30,11.25,-11.25,-56.25,-45,-3.75,-13.333333333333334
129,15,-33.75,37.5,18.75,-7.5,-52.5,-41.25,-3.75,-7.5
130,41.25,-3.75,52.5,30,3.75,-45,-33.75,3.75,5.416666666666667
131,41.25,3.75,60,37.5,11.25,-37.5,-26.25,3.75,10.416666666666666
132,0,-18.75,60,30,7.5,-45,-33.75,-3.75,-0.4166666666666667
133,-37.5,-26.25,52.5,26.25,3.75,-52.5,-41.25,-7.5,-9.166666666666666
134,-30,-30,48.75,22.5,0,-56.25,-48.75,-15,-12.083333333333334
135,-18.75,-52.5,37.5,3.75,-15,-71.25,-60,-26.25,-22.5
136,-26.25,-63.75,37.5,3.75,-15,-71.25,-63.75,-22.5,-24.583333333333332
137,-26.25,-63.75,41.25,3.75,-15,-67.5,-60,-22.5,-23.333333333333332
138,-37.5,-67.5,37.5,0,-18.75,-71.25,-63.75,-30,-27.916666666666668
139,-45,-75,33.75,-11.25,-26.25,-78.75,-71.25,-37.5,-34.583333333333336
140,-45,-78.75,37.5,-15,-30,-82.5,-75,-45,-37.083333333333336
141,-41.25,-71.25,41.25,-15,-26.25,-78.75,-71.25,-45,-34.166666666666664
142,-37.5,-60,48.75,-7.5,-22.5,-75,-67.5,-41.25,-29.166666666666668
143,-52.5,-60,48.75,-11.25,-22.5,-78.75,-71.25,-41.25,-32.083333333333336
144,-60,-63.75,45,-15,-26.25,-82.5,-75,-41.25,-35.416666666666664
145,-52.5,-67.5,45,-11.25,-22.5,-78.75,-67.5,-37.5,-32.5
146,-41.25,-67.5,48.75,-7.5,-18.75,-75,-67.5,-33.75,-29.166666666666668
147,-48.75,-78.75,41.25,-18.75,-26.25,-82.5,-75,-41.25,-36.666666666666664
148,-67.5,-97.5,26.25,-33.75,-41.25,-93.75,-86.25,-48.75,-49.166666666666664
149,-78.75,-105,22.5,-37.5,-45,-97.5,-86.25,-52.5,-53.333333333333336
150,-71.25,-90,33.75,-30,-37.5,-90,-82.5,-45,-45.833333333333336
151,-63.75,-78.75,41.25,-30,-37.5,-90,-82.5,-48.75,-43.333333333333336
152,-63.75,-82.5,37.5,-41.25,-45,-97.5,-90,-60,-49.166666666666664
153,-67.5,-82.5,33.75,-48.75,-52.5,-101.25,-90,-60,-52.083333333333336
154,-78.75,-78.75,33.75,-45,-52.5,-101.25,-90,-60,-52.5
155,-97.5,-90,37.5,-45,-48.75,-101.25,-90,-60,-55.0
156,-78.75,-86.25,37.5,-45,-52.5,-101.25,-90,-60,-52.916666666666664
157,-56.25,-63.75,45,-33.75,-45,-93.75,-86.25,-52.5,-42.916666666666664
158,-71.25,-67.5,48.75,-26.25,-37.5,-90,-82.5,-45,-41.25
159,-86.25,-93.75,30,-41.25,-48.75,-101.25,-93.75,-60,-55.0
160,-63.75,-101.25,22.5,-52.5,-63.75,-112.5,-105,-67.5,-60.416666666666664
161,-52.5,-105,15,-60,-67.5,-120,-108.75,-75,-63.75
162,-63.75,-105,18.75,-56.25,-60,-116.25,-105,-67.5,-61.666666666666664
163,-90,-116.25,18.75,-56.25,-63.75,-112.5,-105,-67.5,-65.83333333333333
164,-93.75,-120,18.75,-63.75,-71.25,-120,-112.5,-75,-70.83333333333333
165,-78.75,-101.25,30,-52.5,-52.5,-105,-101.25,-67.5,-58.75
166,-78.75,-82.5,45,-33.75,-37.5,-90,-82.5,-52.5,-45.833333333333336
167,-86.25,-82.5,45,-37.5,-41.25,-93.75,-86.25,-56.25,-48.75
168,-108.75,-108.75,37.5,-45,-48.75,-97.5,-93.75,-60,-58.333333333333336
169,-120,-127.5,30,-41.25,-48.75,-101.25,-93.75,-60,-62.5
170,-97.5,-112.5,45,-26.25,-33.75,-86.25,-82.5,-45,-48.75
171,-63.75,-82.5,48.75,-22.5,-33.75,-82.5,-75,-41.25,-39.166666666666664
172,-52.5,-78.75,41.25,-30,-37.5,-86.25,-78.75,-48.75,-41.25
173,-63.75,-86.25,41.25,-30,-37.5,-90,-82.5,-48.75,-44.166666666666664
174,-78.75,-90,41.25,-33.75,-41.25,-93.75,-86.25,-52.5,-48.333333333333336
175,-97.5,-101.25,33.75,-41.25,-48.75,-97.5,-93.75,-60,-56.25
176,-105,-105,26.25,-45,-48.75,-97.5,-97.5,-63.75,-59.583333333333336
177,-101.25,-108.75,30,-45,-48.75,-93.75,-90,-63.75,-57.916666666666664
178,-82.5,-93.75,33.75,-41.25,-41.25,-90,-86.25,-56.25,-50.833333333333336
179,-67.5,-71.25,45,-30,-33.75,-78.75,-75,-45,-39.583333333333336
180,-86.25,-82.5,45,-26.25,-30,-78.75,-75,-41.25,-41.666666666666664
181,-82.5,-86.25,41.25,-22.5,-30,-78.75,-75,-41.25,-41.666666666666664
182,-56.25,-67.5,45,-18.75,-22.5,-75,-67.5,-37.5,-33.333333333333336
183,-52.5,-63.75,48.75,-15,-18.75,-67.5,-63.75,-33.75,-29.583333333333332
184,-56.25,-67.5,45,-15,-18.75,-67.5,-67.5,-33.75,-31.25
185,-63.75,-78.75,41.25,-18.75,-22.5,-71.25,-71.25,-41.25,-36.25
186,-71.25,-93.75,30,-33.75,-33.75,-86.25,-82.5,-52.5,-47.083333333333336
187,-63.75,-90,33.75,-33.75,-33.75,-82.5,-78.75,-45,-43.75
188,-67.5,-90,33.75,-33.75,-37.5,-82.5,-78.75,-45,-44.583333333333336
189,-97.5,-97.5,37.5,-33.75,-33.75,-82.5,-78.75,-48.75,-48.333333333333336
190,-120,-101.25,45,-30,-30,-78.75,-75,-48.75,-48.75
191,-112.5,-97.5,48.75,-22.5,-26.25,-75,-71.25,-45,-44.583333333333336
192,-67.5,-75,52.5,-18.75,-18.75,-67.5,-67.5,-37.5,-33.333333333333336
193,-45,-52.5,60,-3.75,-11.25,-60,-60,-30,-22.5
194,-41.25,-52.5,56.25,-3.75,-7.5,-63.75,-60,-33.75,-22.916666666666668
195,-45,-67.5,37.5,-18.75,-22.5,-71.25,-71.25,-41.25,-33.333333333333336
196,-48.75,-71.25,37.5,-18.75,-22.5,-71.25,-67.5,-37.5,-33.333333333333336
197,-48.75,-63.75,37.5,-15,-18.75,-67.5,-63.75,-33.75,-30.416666666666668
198,-56.25,-67.5,33.75,-22.5,-22.5,-71.25,-67.5,-37.5,-34.583333333333336
199,-63.75,-82.5,26.25,-33.75,-30,-78.75,-78.75,-48.75,-43.333333333333336
200,-60,-90,18.75,-41.25,-37.5,-82.5,-82.5,-52.5,-47.5
201,-63.75,-90,15,-45,-41.25,-86.25,-82.5,-56.25,-50.0
202,-75,-86.25,22.5,-33.75,-33.75,-78.75,-75,-45,-45.0
203,-75,-82.5,30,-26.25,-26.25,-71.25,-71.25,-41.25,-40.416666666666664
204,-67.5,-75,37.5,-18.75,-18.75,-63.75,-60,-30,-32.916666666666664
205,-75,-67.5,48.75,-3.75,-3.75,-52.5,-48.75,-18.75,-24.583333333333332
206,-60,-52.5,37.5,-11.25,-11.25,-60,-56.25,-22.5,-26.25
207,-26.25,-45,30,-22.5,-18.75,-63.75,-60,-26.25,-25.833333333333332
208,-18.75,-48.75,33.75,-18.75,-18.75,-56.25,-52.5,-18.75,-22.083333333333332
209,-30,-52.5,48.75,-3.75,-3.75,-41.25,-33.75,-3.75,-13.333333333333334
210,-41.25,-63.75,45,-7.5,-7.5,-48.75,-45,-11.25,-20.0
211,-52.5,-82.5,30,-26.25,-26.25,-67.5,-63.75,-30,-35.416666666666664
212,-71.25,-105,18.75,-41.25,-41.25,-78.75,-75,-45,-48.75
213,-82.5,-108.75,11.25,-48.75,-45,-86.25,-82.5,-48.75,-54.583333333333336
214,-71.25,-86.25,22.5,-37.5,-33.75,-75,-71.25,-37.5,-43.333333333333336
215,-60,-63.75,30,-30,-26.25,-67.5,-63.75,-33.75,-35.0
216,-52.5,-60,26.25,-26.25,-26.25,-67.5,-67.5,-33.75,-34.166666666666664
217,-45,-56.25,33.75,-18.75,-18.75,-60,-60,-26.25,-27.916666666666668
218,-63.75,-71.25,30,-18.75,-18.75,-67.5,-67.5,-33.75,-34.583333333333336
219,-71.25,-90,18.75,-30,-33.75,-78.75,-78.75,-41.25,-45.0
220,-52.5,-75,18.75,-26.25,-30,-71.25,-71.25,-33.75,-37.916666666666664
221,-52.5,-67.5,18.75,-30,-30,-71.25,-71.25,-33.75,-37.5
222,-60,-75,11.25,-37.5,-37.5,-78.75,-75,-37.5,-43.333333333333336
223,-52.5,-67.5,15,-37.5,-33.75,-75,-71.25,-37.5,-40.0
224,-63.75,-82.5,11.25,-45,-41.25,-78.75,-78.75,-41.25,-46.666666666666664
225,-101.25,-120,7.5,-56.25,-52.5,-90,-90,-56.25,-62.083333333333336
226,-97.5,-112.5,15,-52.5,-48.75,-86.25,-90,-52.5,-58.333333333333336
227,-60,-78.75,18.75,-45,-37.5,-71.25,-75,-37.5,-42.916666666666664
228,-45,-60,22.5,-37.5,-30,-63.75,-67.5,-30,-34.583333333333336
229,-48.75,-52.5,26.25,-26.25,-22.5,-56.25,-56.25,-22.5,-28.75
230,-60,-56.25,33.75,-18.75,-15,-48.75,-48.75,-11.25,-25.0
231,-71.25,-75,22.5,-33.75,-26.25,-60,-60,-22.5,-36.25
232,-60,-86.25,11.25,-45,-37.5,-71.25,-67.5,-33.75,-43.333333333333336
233,-41.25,-71.25,15,-45,-37.5,-67.5,-67.5,-30,-38.333333333333336
234,-22.5,-48.75,26.25,-33.75,-30,-60,-63.75,-22.5,-28.333333333333332
235,-41.25,-67.5,18.75,-45,-41.25,-71.25,-75,-37.5,-40.0
236,-45,-67.5,15,-52.5,-48.75,-78.75,-78.75,-41.25,-44.166666666666664
237,-56.25,-63.75,18.75,-48.75,-45,-75,-75,-37.5,-42.5
238,-71.25,-67.5,22.5,-45,-37.5,-67.5,-67.5,-30,-40.416666666666664
239,-60,-56.25,33.75,-37.5,-30,-63.75,-60,-22.5,-32.916666666666664
240,-52.5,-67.5,22.5,-45,-41.25,-75,-71.25,-33.75,-40.416666666666664
241,-56.25,-86.25,11.25,-52.5,-52.5,-90,-90,-45,-51.25
242,-60,-82.5,11.25,-48.75,-48.75,-86.25,-86.25,-45,-49.583333333333336
243,-71.25,-75,18.75,-45,-41.25,-82.5,-78.75,-37.5,-45.833333333333336
244,-67.5,-71.25,22.5,-45,-41.25,-78.75,-75,-33.75,-43.333333333333336
245,-63.75,-86.25,15,-52.5,-48.75,-86.25,-86.25,-41.25,-50.0
246,-63.75,-97.5,7.5,-60,-56.25,-93.75,-93.75,-48.75,-56.25
247,-52.5,-97.5,0,-67.5,-63.75,-97.5,-97.5,-56.25,-59.166666666666664
248,-56.25,-101.25,-3.75,-75,-63.75,-97.5,-97.5,-60,-61.666666666666664
249,-67.5,-90,3.75,-67.5,-60,-93.75,-93.75,-56.25,-58.333333333333336
250,-71.25,-71.25,11.25,-60,-52.5,-86.25,-86.25,-48.75,-51.666666666666664
251,-48.75,-52.5,18.75,-52.5,-45,-78.75,-82.5,-45,-42.916666666666664
252,-22.5,-33.75,22.5,-45,-41.25,-75,-75,-37.5,-34.166666666666664
253,-48.75,-48.75,22.5,-45,-41.25,-75,-75,-33.75,-38.333333333333336
254,-78.75,-82.5,7.5,-52.5,-48.75,-82.5,-82.5,-41.25,-51.25
255,-82.5,-101.25,0,-60,-56.25,-93.75,-90,-48.75,-59.166666666666664
256,-75,-101.25,0,-63.75,-60,-97.5,-93.75,-52.5,-60.416666666666664
257,-71.25,-93.75,3.75,-63.75,-56.25,-93.75,-90,-48.75,-57.083333333333336
258,-82.5,-97.5,0,-63.75,-60,-93.75,-93.75,-52.5,-60.416666666666664
259,-82.5,-108.75,-3.75,-71.25,-67.5,-101.25,-101.25,-60,-66.25
260,-97.5,-120,0,-75,-67.5,-101.25,-97.5,-60,-68.75
261,-101.25,-116.25,3.75,-75,-63.75,-97.5,-90,-56.25,-66.25
262,-93.75,-112.5,0,-78.75,-67.5,-97.5,-93.75,-60,-67.08333333333333
263,-90,-108.75,0,-78.75,-67.5,-105,-101.25,-67.5,-68.75
264,-101.25,-108.75,3.75,-75,-67.5,-105,-105,-67.5,-69.58333333333333
265,-86.25,-90,7.5,-67.5,-60,-97.5,-97.5,-56.25,-60.833333333333336
266,-52.5,-75,7.5,-60,-56.25,-93.75,-90,-52.5,-52.5
267,-60,-90,0,-63.75,-60,-101.25,-93.75,-56.25,-58.333333333333336
268,-67.5,-90,3.75,-67.5,-60,-101.25,-93.75,-56.25,-59.166666666666664
269,-71.25,-90,15,-60,-52.5,-93.75,-86.25,-45,-53.75
270,-78.75,-108.75,3.75,-67.5,-60,-101.25,-93.75,-52.5,-62.083333333333336
271,-78.75,-105,3.75,-71.25,-63.75,-97.5,-90,-52.5,-61.666666666666664
272,-71.25,-93.75,7.5,-71.25,-60,-97.5,-90,-52.5,-58.75
273,-86.25,-105,0,-78.75,-67.5,-105,-97.5,-60,-66.66666666666667
274,-90,-90,7.5,-71.25,-60,-97.5,-90,-52.5,-60.416666666666664
275,-67.5,-67.5,18.75,-60,-52.5,-90,-78.75,-45,-49.166666666666664
276,-67.5,-78.75,18.75,-63.75,-56.25,-97.5,-86.25,-48.75,-53.333333333333336
277,-67.5,-82.5,18.75,-60,-56.25,-101.25,-90,-48.75,-54.166666666666664
278,-78.75,-86.25,15,-60,-52.5,-101.25,-90,-48.75,-55.833333333333336
279,-112.5,-116.25,3.75,-67.5,-63.75,-108.75,-101.25,-56.25,-69.16666666666667
280,-105,-127.5,0,-78.75,-71.25,-116.25,-108.75,-67.5,-75.0
281,-78.75,-116.25,11.25,-71.25,-63.75,-108.75,-101.25,-60,-65.41666666666667
282,-82.5,-108.75,7.5,-71.25,-67.5,-108.75,-101.25,-60,-65.83333333333333
283,-90,-97.5,0,-78.75,-71.25,-116.25,-108.75,-63.75,-69.58333333333333
284,-71.25,-86.25,-3.75,-82.5,-67.5,-112.5,-108.75,-63.75,-66.25
285,-52.5,-78.75,3.75,-78.75,-67.5,-108.75,-101.25,-60,-60.416666666666664
286,-56.25,-82.5,3.75,-75,-67.5,-108.75,-97.5,-56.25,-60.0
287,-75,-97.5,7.5,-71.25,-63.75,-101.25,-93.75,-56.25,-61.25
288,-82.5,-101.25,7.5,-67.5,-63.75,-101.25,-93.75,-56.25,-62.083333333333336
289,-86.25,-90,11.25,-63.75,-60,-101.25,-93.75,-52.5,-59.583333333333336
290,-86.25,-75,18.75,-52.5,-48.75,-93.75,-78.75,-37.5,-50.416666666666664
291,-75,-71.25,15,-56.25,-52.5,-97.5,-86.25,-45,-52.083333333333336
292,-45,-63.75,11.25,-63.75,-56.25,-101.25,-93.75,-48.75,-51.25
293,-52.5,-78.75,11.25,-63.75,-60,-105,-97.5,-52.5,-55.416666666666664
294,-71.25,-101.25,11.25,-67.5,-63.75,-105,-97.5,-52.5,-60.833333333333336
295,-86.25,-127.5,-7.5,-86.25,-78.75,-123.75,-112.5,-67.5,-76.66666666666667
296,-116.25,-142.5,-15,-97.5,-86.25,-127.5,-120,-71.25,-86.25
297,-108.75,-120,0,-86.25,-78.75,-116.25,-112.5,-63.75,-76.25
298,-86.25,-101.25,3.75,-82.5,-75,-116.25,-108.75,-60,-69.58333333333333
299,-93.75,-108.75,3.75,-82.5,-78.75,-120,-108.75,-63.75,-72.5
300,-108.75,-116.25,0,-82.5,-78.75,-120,-112.5,-67.5,-76.25
301,-108.75,-108.75,7.5,-67.5,-67.5,-112.5,-105,-60,-69.16666666666667
302,-86.25,-90,7.5,-63.75,-63.75,-112.5,-105,-60,-63.75
303,-63.75,-75,11.25,-63.75,-63.75,-112.5,-105,-60,-59.166666666666664
304,-75,-78.75,7.5,-71.25,-71.25,-116.25,-108.75,-63.75,-64.16666666666667
305,-67.5,-78.75,3.75,-75,-71.25,-116.25,-112.5,-63.75,-64.58333333333333
306,-71.25,-90,3.75,-71.25,-67.5,-112.5,-108.75,-60,-64.16666666666667
307,-90,-105,0,-78.75,-75,-116.25,-108.75,-63.75,-70.83333333333333
308,-93.75,-105,3.75,-82.5,-78.75,-116.25,-108.75,-63.75,-71.66666666666667
309,-86.25,-93.75,7.5,-82.5,-75,-112.5,-105,-60,-67.5
310,-78.75,-78.75,11.25,-78.75,-67.5,-108.75,-97.5,-56.25,-61.666666666666664
311,-67.5,-75,15,-71.25,-63.75,-108.75,-101.25,-56.25,-58.75
312,-82.5,-101.25,11.25,-71.25,-67.5,-116.25,-108.75,-63.75,-66.66666666666667
313,-90,-108.75,7.5,-71.25,-67.5,-120,-112.5,-67.5,-70.0
314,-56.25,-78.75,15,-60,-56.25,-112.5,-105,-56.25,-56.666666666666664
315,-45,-60,26.25,-48.75,-48.75,-105,-93.75,-48.75,-47.083333333333336
316,-67.5,-75,18.75,-60,-52.5,-105,-101.25,-52.5,-55.0
317,-82.5,-93.75,11.25,-60,-52.5,-105,-97.5,-52.5,-59.166666666666664
318,-67.5,-78.75,22.5,-48.75,-45,-93.75,-86.25,-41.25,-48.75
319,-67.5,-71.25,22.5,-45,-45,-93.75,-86.25,-41.25,-47.5
320,-82.5,-78.75,26.25,-52.5,-52.5,-97.5,-90,-48.75,-52.916666666666664
321,-78.75,-63.75,37.5,-48.75,-45,-93.75,-86.25,-41.25,-46.666666666666664
322,-78.75,-41.25,52.5,-37.5,-37.5,-82.5,-75,-33.75,-37.083333333333336
323,-82.5,-45,52.5,-37.5,-37.5,-86.25,-78.75,-41.25,-39.583333333333336
324,-67.5,-45,48.75,-37.5,-41.25,-93.75,-90,-48.75,-41.666666666666664
325,-71.25,-41.25,60,-26.25,-33.75,-86.25,-82.5,-45,-36.25
326,-71.25,-41.25,67.5,-18.75,-26.25,-86.25,-82.5,-45,-33.75
327,-41.25,-30,67.5,-11.25,-18.75,-78.75,-82.5,-41.25,-26.25
328,-22.5,-33.75,60,-15,-22.5,-78.75,-82.5,-41.25,-26.25
329,-33.75,-52.5,52.5,-18.75,-26.25,-78.75,-82.5,-41.25,-31.25
330,-52.5,-60,56.25,-22.5,-30,-82.5,-82.5,-41.25,-35.0
331,-52.5,-60,63.75,-18.75,-26.25,-78.75,-82.5,-45,-33.333333333333336
332,-60,-60,71.25,-11.25,-22.5,-75,-78.75,-41.25,-30.833333333333332
333,-90,-56.25,75,-11.25,-18.75,-71.25,-75,-33.75,-31.25
334,-105,-45,78.75,-3.75,-15,-63.75,-63.75,-26.25,-27.083333333333332
335,-75,-22.5,86.25,0,-7.5,-60,-60,-22.5,-17.916666666666668
336,-41.25,7.5,93.75,7.5,3.75,-52.5,-52.5,-11.25,-5.0
337,-37.5,18.75,86.25,11.25,3.75,-52.5,-48.75,-3.75,-2.5
338,-37.5,15,75,7.5,0,-52.5,-48.75,0,-4.583333333333333
339,-45,-3.75,48.75,-11.25,-15,-63.75,-60,-11.25,-17.916666666666668
340,-45,-18.75,33.75,-26.25,-22.5,-71.25,-63.75,-15,-25.416666666666668
341,-37.5,-18.75,22.5,-26.25,-18.75,-63.75,-56.25,-7.5,-22.916666666666668
342,-45,-37.5,3.75,-37.5,-26.25,-71.25,-60,-11.25,-31.666666666666668
343,-48.75,-56.25,-11.25,-48.75,-41.25,-82.5,-75,-26.25,-43.333333333333336
344,-18.75,-30,0,-45,-33.75,-71.25,-67.5,-22.5,-32.083333333333336
345,-7.5,-15,-3.75,-48.75,-33.75,-71.25,-63.75,-18.75,-29.166666666666668
346,-18.75,-22.5,-11.25,-56.25,-45,-75,-71.25,-22.5,-35.833333333333336
347,-26.25,-33.75,-11.25,-63.75,-48.75,-78.75,-71.25,-22.5,-39.583333333333336
348,-33.75,-52.5,-15,-67.5,-52.5,-82.5,-78.75,-26.25,-45.416666666666664
349,-15,-26.25,-11.25,-56.25,-45,-78.75,-75,-22.5,-36.666666666666664
350,-18.75,-7.5,-7.5,-56.25,-45,-82.5,-75,-26.25,-35.416666666666664
351,-41.25,-37.5,-11.25,-71.25,-60,-93.75,-90,-37.5,-49.166666666666664
352,-33.75,-41.25,-11.25,-75,-63.75,-97.5,-93.75,-45,-51.25
353,-26.25,-30,0,-63.75,-56.25,-93.75,-90,-41.25,-44.583333333333336
354,-45,-48.75,3.75,-63.75,-56.25,-93.75,-86.25,-41.25,-47.916666666666664
355,-56.25,-78.75,-3.75,-75,-67.5,-101.25,-97.5,-52.5,-59.166666666666664
356,-52.5,-86.25,-3.75,-82.5,-71.25,-105,-97.5,-52.5,-61.25
357,-60,-75,-15,-86.25,-71.25,-108.75,-105,-60,-64.58333333333333
358,-63.75,-60,-7.5,-82.5,-71.25,-108.75,-101.25,-56.25,-61.25
359,-63.75,-48.75,7.5,-71.25,-63.75,-101.25,-97.5,-48.75,-54.166666666666664
360,-56.25,-45,11.25,-67.5,-60,-101.25,-97.5,-45,-51.25
361,-45,-48.75,11.25,-63.75,-60,-101.25,-97.5,-48.75,-50.416666666666664
362,-45,-56.25,7.5,-67.5,-63.75,-105,-101.25,-52.5,-53.75
363,-52.5,-60,11.25,-63.75,-63.75,-101.25,-97.5,-52.5,-53.333333333333336
364,-97.5,-97.5,3.75,-78.75,-75,-116.25,-108.75,-63.75,-70.41666666666667
365,-127.5,-138.75,-22.5,-105,-101.25,-138.75,-131.25,-82.5,-94.16666666666667
366,-105,-131.25,-22.5,-105,-105,-142.5,-131.25,-82.5,-91.66666666666667
367,-93.75,-127.5,-11.25,-97.5,-97.5,-131.25,-127.5,-78.75,-85.0
368,-93.75,-131.25,-11.25,-105,-97.5,-135,-131.25,-78.75,-87.08333333333333
369,-93.75,-131.25,-15,-108.75,-105,-142.5,-142.5,-86.25,-91.66666666666667
370,-97.5,-116.25,-7.5,-101.25,-101.25,-138.75,-138.75,-86.25,-87.5
371,-90,-97.5,0,-90,-90,-131.25,-131.25,-78.75,-78.75
372,-86.25,-97.5,0,-90,-86.25,-127.5,-131.25,-78.75,-77.5
373,-101.25,-105,0,-86.25,-86.25,-131.25,-131.25,-78.75,-80.0
374,-97.5,-101.25,-3.75,-82.5,-86.25,-131.25,-131.25,-78.75,-79.16666666666667
375,-101.25,-123.75,-15,-93.75,-97.5,-138.75,-138.75,-86.25,-88.33333333333333
376,-105,-142.5,-18.75,-101.25,-101.25,-138.75,-138.75,-86.25,-92.5
377,-75,-112.5,-3.75,-90,-86.25,-123.75,-123.75,-71.25,-76.25
378,-60,-82.5,7.5,-78.75,-75,-112.5,-108.75,-60,-63.333333333333336
379,-90,-108.75,-3.75,-90,-90,-123.75,-120,-71.25,-77.5
380,-101.25,-131.25,-18.75,-108.75,-108.75,-142.5,-131.25,-82.5,-91.66666666666667
381,-108.75,-127.5,-18.75,-112.5,-108.75,-142.5,-135,-86.25,-93.33333333333333
382,-123.75,-123.75,-11.25,-105,-105,-138.75,-131.25,-82.5,-91.25
383,-127.5,-127.5,-15,-101.25,-101.25,-135,-127.5,-78.75,-90.41666666666667
384,-131.25,-135,-15,-101.25,-101.25,-138.75,-135,-86.25,-93.75
385,-127.5,-135,-11.25,-93.75,-93.75,-138.75,-138.75,-90,-92.08333333333333
386,-120,-135,-11.25,-90,-93.75,-138.75,-135,-90,-90.41666666666667
387,-123.75,-142.5,-15,-93.75,-101.25,-142.5,-138.75,-90,-94.16666666666667
388,-120,-138.75,-18.75,-93.75,-101.25,-142.5,-138.75,-93.75,-94.16666666666667
389,-101.25,-127.5,-18.75,-90,-93.75,-135,-135,-86.25,-87.5
390,-90,-127.5,-15,-93.75,-97.5,-138.75,-135,-90,-87.5
391,-82.5,-131.25,-7.5,-86.25,-93.75,-142.5,-142.5,-97.5,-87.08333333333333
392,-75,-142.5,15,-67.5,-93.75,-150,-153.75,-112.5,-86.66666666666667
393,-71.25,-150,48.75,-33.75,-86.25,-157.5,-168.75,-135,-83.75
394,-67.5,-165,101.25,18.75,-67.5,-165,-187.5,-157.5,-76.66666666666667
395,-56.25,-191.25,153.75,71.25,-52.5,-180,-213.75,-183.75,-72.5
396,-41.25,-195,198.75,116.25,-41.25,-187.5,-232.5,-206.25,-65.41666666666667
397,-37.5,-168.75,240,180,-3.75,-168.75,-221.25,-195,-41.666666666666664
398,-18.75,-131.25,270,247.5,48.75,-131.25,-191.25,-172.5,-8.75
399,22.5,-78.75,296.25,318.75,112.5,-82.5,-150,-135,33.75
400,71.25,-22.5,333.75,397.5,187.5,-11.25,-86.25,-82.5,87.5
401,97.5,7.5,345,457.5,255,48.75,-30,-33.75,127.5
402,112.5,33.75,333.75,487.5,300,97.5,15,7.5,154.16666666666666
403,150,105,333.75,525,352.5,161.25,82.5,75,198.33333333333334
404,221.25,213.75,337.5,577.5,431.25,262.5,191.25,176.25,267.9166666666667
405,337.5,356.25,326.25,641.25,532.5,382.5,315,292.5,353.75
406,427.5,495,315,686.25,626.25,506.25,442.5,416.25,435.0
407,457.5,592.5,262.5,667.5,686.25,607.5,558.75,536.25,485.4166666666667
408,495,720,221.25,675,776.25,742.5,708.75,686.25,558.3333333333334
409,547.5,907.5,228.75,750,918.75,918.75,892.5,862.5,669.5833333333334
410,566.25,1102.5,198.75,780,1031.25,1087.5,1083.75,1053.75,767.0833333333334
411,600,1293.75,78.75,708.75,1083.75,1233.75,1271.25,1252.5,835.8333333333334
412,652.5,1413.75,-37.5,622.5,1125,1365,1436.25,1417.5,888.3333333333334
413,656.25,1447.5,-142.5,510,1143.75,1462.5,1556.25,1533.75,907.5
414,615,1466.25,-228.75,360,1125,1537.5,1657.5,1627.5,906.6666666666666
415,547.5,1413.75,-251.25,307.5,1151.25,1601.25,1710,1650,903.3333333333334
416,457.5,1293.75,-221.25,337.5,1218.75,1653.75,1728.75,1616.25,898.3333333333334
417,393.75,1233.75,-210,311.25,1248.75,1687.5,1732.5,1586.25,887.0833333333334
418,345,1188.75,-228.75,198.75,1185,1627.5,1665,1518.75,833.3333333333334
419,243.75,1027.5,-240,60,1038.75,1455,1485,1350,713.3333333333334
420,112.5,843.75,-198.75,-37.5,870,1215,1230,1121.25,572.9166666666666
421,3.75,697.5,-157.5,-131.25,656.25,926.25,941.25,881.25,424.1666666666667
422,-93.75,551.25,-150,-255,401.25,618.75,652.5,648.75,263.75
423,-180,401.25,-176.25,-397.5,153.75,333.75,393.75,438.75,107.5
424,-228.75,266.25,-198.75,-498.75,-22.5,138.75,202.5,270,-7.916666666666667
425,-266.25,142.5,-187.5,-510,-82.5,41.25,82.5,146.25,-70.41666666666667
426,-292.5,56.25,-172.5,-491.25,-105,-11.25,11.25,60,-105.0
427,-292.5,3.75,-187.5,-487.5,-127.5,-37.5,-22.5,18.75,-125.83333333333333
428,-277.5,-18.75,-210,-468.75,-120,-33.75,-18.75,15,-125.83333333333333
429,-270,-33.75,-213.75,-431.25,-108.75,-26.25,-11.25,22.5,-119.16666666666667
430,-243.75,-41.25,-210,-397.5,-123.75,-48.75,-22.5,18.75,-118.75
431,-213.75,-45,-210,-371.25,-142.5,-75,-45,7.5,-121.66666666666667
432,-202.5,-60,-202.5,-341.25,-142.5,-90,-60,-7.5,-122.91666666666667
433,-176.25,-63.75,-180,-292.5,-127.5,-86.25,-63.75,-11.25,-111.25
434,-142.5,-45,-157.5,-243.75,-93.75,-71.25,-56.25,0,-90.0
435,-97.5,0,-123.75,-180,-45,-37.5,-26.25,26.25,-53.75
436,-67.5,18.75,-93.75,-120,0,-3.75,-3.75,37.5,-25.833333333333332
437,-67.5,7.5,-71.25,-75,26.25,11.25,3.75,37.5,-14.166666666666666
438,-71.25,7.5,-41.25,-45,45,18.75,7.5,37.5,-4.583333333333333
439,-48.75,18.75,-18.75,-26.25,52.5,22.5,7.5,37.5,5.0
440,-30,15,-7.5,-22.5,45,15,0,26.25,4.583333333333333
441,-37.5,-3.75,-11.25,-30,30,-3.75,-22.5,7.5,-7.916666666666667
442,-52.5,-15,-7.5,-26.25,26.25,-15,-30,0,-13.333333333333334
443,-75,-41.25,-3.75,-22.5,26.25,-18.75,-30,-3.75,-18.75
444,-71.25,-48.75,3.75,-18.75,22.5,-26.25,-37.5,-7.5,-20.416666666666668
445,-48.75,-18.75,11.25,-7.5,26.25,-26.25,-37.5,-3.75,-11.666666666666666
446,-18.75,0,11.25,-3.75,22.5,-33.75,-45,-11.25,-8.75
447,-18.75,-11.25,7.5,-7.5,18.75,-37.5,-45,-11.25,-11.666666666666666
448,-45,-30,3.75,-11.25,11.25,-41.25,-52.5,-15,-20.0
449,-48.75,-45,0,-18.75,3.75,-48.75,-56.25,-22.5,-26.25
450,-26.25,-37.5,3.75,-15,3.75,-45,-52.5,-22.5,-21.25
451,-30,-37.5,11.25,-15,3.75,-48.75,-60,-26.25,-22.5
452,-48.75,-56.25,7.5,-22.5,-7.5,-60,-71.25,-33.75,-32.5
453,-82.5,-90,-3.75,-37.5,-18.75,-71.25,-82.5,-48.75,-48.333333333333336
454,-90,-86.25,3.75,-30,-15,-67.5,-78.75,-45,-45.416666666666664
455,-67.5,-63.75,11.25,-18.75,-7.5,-60,-71.25,-33.75,-34.583333333333336
456,-60,-60,11.25,-15,-3.75,-60,-67.5,-30,-31.666666666666668
457,-41.25,-45,15,-7.5,0,-52.5,-63.75,-26.25,-24.583333333333332
458,-41.25,-56.25,11.25,-7.5,0,-56.25,-67.5,-30,-27.5
459,-67.5,-86.25,3.75,-18.75,-11.25,-67.5,-75,-41.25,-40.416666666666664
460,-67.5,-78.75,0,-18.75,-11.25,-67.5,-75,-41.25,-40.0
461,-60,-67.5,3.75,-15,-7.5,-63.75,-71.25,-33.75,-35.0
462,-33.75,-45,11.25,-7.5,0,-56.25,-63.75,-30,-25.0
463,-7.5,-30,11.25,-3.75,3.75,-52.5,-60,-30,-18.75
464,-15,-41.25,3.75,-18.75,-11.25,-67.5,-71.25,-41.25,-29.166666666666668
465,-18.75,-48.75,3.75,-18.75,-11.25,-63.75,-71.25,-41.25,-30.0
466,0,-18.75,22.5,3.75,11.25,-45,-52.5,-18.75,-10.833333333333334
467,-3.75,-7.5,30,15,22.5,-33.75,-45,-11.25,-3.75
468,-41.25,-45,15,3.75,7.5,-48.75,-56.25,-22.5,-20.833333333333332
469,-45,-45,11.25,7.5,7.5,-48.75,-56.25,-22.5,-21.25
470,-22.5,-30,15,15,18.75,-41.25,-48.75,-15,-12.083333333333334
471,-22.5,-48.75,0,7.5,11.25,-48.75,-56.25,-22.5,-20.0
472,-18.75,-56.25,-7.5,0,0,-56.25,-63.75,-30,-25.833333333333332
473,0,-33.75,-3.75,3.75,7.5,-48.75,-56.25,-26.25,-17.5
474,-3.75,-22.5,3.75,15,15,-37.5,-45,-15,-10.0
475,-7.5,-26.25,7.5,11.25,15,-37.5,-48.75,-15,-11.25
476,11.25,-15,11.25,18.75,22.5,-33.75,-41.25,-15,-4.583333333333333
477,15,-3.75,7.5,15,18.75,-33.75,-41.25,-15,-4.166666666666667
478,7.5,0,11.25,18.75,22.5,-30,-37.5,-3.75,-1.25
479,11.25,-11.25,3.75,15,18.75,-33.75,-41.25,-11.25,-5.416666666666667
480,-3.75,-22.5,3.75,18.75,22.5,-30,-37.5,-11.25,-6.666666666666667
481,-15,-22.5,7.5,30,33.75,-22.5,-30,0,-2.0833333333333335
482,3.75,-15,3.75,33.75,33.75,-18.75,-30,0,1.25
483,18.75,-7.5,0,30,33.75,-22.5,-33.75,0,2.0833333333333335
484,7.5,-18.75,-7.5,22.5,30,-22.5,-33.75,0,-2.5
485,7.5,-33.75,-7.5,26.25,30,-22.5,-30,0,-3.3333333333333335
486,26.25,-30,-3.75,30,30,-18.75,-26.25,3.75,1.25
487,26.25,-3.75,-3.75,30,33.75,-15,-22.5,3.75,5.416666666666667
488,30,18.75,-3.75,30,33.75,-11.25,-22.5,7.5,9.166666666666666
489,33.75,18.75,0,33.75,37.5,-3.75,-15,15,13.333333333333334
490,30,18.75,-3.75,33.75,37.5,-3.75,-11.25,15,12.916666666666666
491,30,11.25,-7.5,30,37.5,-3.75,-11.25,15,11.25
492,26.25,11.25,-7.5,37.5,41.25,-3.75,-11.25,15,12.083333333333334
493,41.25,37.5,3.75,52.5,56.25,7.5,0,26.25,25.0
494,48.75,26.25,-3.75,48.75,52.5,-3.75,-7.5,22.5,20.416666666666668
495,48.75,7.5,-18.75,33.75,37.5,-15,-18.75,11.25,9.583333333333334
496,41.25,11.25,-11.25,41.25,45,-7.5,-11.25,18.75,14.166666666666666
497,37.5,15,-7.5,48.75,56.25,7.5,0,26.25,20.416666666666668
498,52.5,22.5,-7.5,52.5,60,15,7.5,33.75,26.25
499,48.75,3.75,-15,41.25,52.5,7.5,0,26.25,18.333333333333332
500,52.5,3.75,-15,37.5,45,3.75,-3.75,22.5,16.25
501,75,33.75,-11.25,41.25,48.75,11.25,3.75,30,25.833333333333332
502,78.75,41.25,-15,41.25,48.75,7.5,0,26.25,25.416666666666668
503,75,45,-7.5,48.75,56.25,18.75,7.5,33.75,30.833333333333332
504,71.25,45,-3.75,56.25,63.75,22.5,15,37.5,34.166666666666664
505,60,37.5,-3.75,56.25,63.75,18.75,15,37.5,31.666666666666668
506,56.25,18.75,-18.75,48.75,52.5,11.25,3.75,33.75,22.916666666666668
507,67.5,11.25,-30,41.25,45,3.75,0,30,18.75
508,82.5,26.25,-22.5,48.75,56.25,18.75,15,45,30.0
509,93.75,41.25,-22.5,45,56.25,18.75,18.75,45,32.916666666666664
510,90,45,-22.5,52.5,63.75,26.25,26.25,52.5,37.083333333333336
511,71.25,30,-18.75,56.25,67.5,33.75,33.75,60,37.083333333333336
512,52.5,11.25,-22.5,48.75,63.75,30,30,56.25,30.0
513,75,33.75,-22.5,45,56.25,26.25,26.25,56.25,32.916666666666664
514,108.75,67.5,-18.75,48.75,60,30,30,60,42.916666666666664
515,108.75,67.5,-18.75,52.5,67.5,33.75,33.75,63.75,45.416666666666664
516,116.25,71.25,-22.5,52.5,63.75,33.75,33.75,63.75,45.833333333333336
517,127.5,86.25,-22.5,56.25,63.75,33.75,37.5,67.5,50.0
518,105,71.25,-26.25,52.5,60,26.25,30,63.75,42.5
519,112.5,60,-37.5,41.25,52.5,18.75,26.25,60,37.083333333333336
520,138.75,63.75,-41.25,41.25,48.75,18.75,30,60,40.0
521,120,45,-45,37.5,45,18.75,30,60,34.583333333333336
522,90,37.5,-48.75,33.75,45,18.75,30,67.5,30.416666666666668
523,90,48.75,-48.75,33.75,48.75,26.25,37.5,75,34.583333333333336
524,108.75,63.75,-45,37.5,48.75,30,45,78.75,40.833333333333336
525,127.5,63.75,-52.5,26.25,37.5,22.5,33.75,67.5,36.25
526,120,63.75,-52.5,18.75,30,15,26.25,63.75,31.666666666666668
527,123.75,86.25,-45,33.75,41.25,26.25,41.25,78.75,42.916666666666664
528,168.75,131.25,-30,45,56.25,41.25,56.25,97.5,62.916666666666664
529,195,142.5,-22.5,56.25,63.75,45,63.75,105,72.08333333333333
530,198.75,123.75,-37.5,48.75,52.5,33.75,56.25,97.5,63.75
531,198.75,112.5,-45,37.5,41.25,22.5,45,86.25,55.416666666666664
532,187.5,108.75,-48.75,33.75,37.5,18.75,41.25,86.25,51.666666666666664
533,183.75,120,-41.25,41.25,45,26.25,48.75,93.75,57.5
534,183.75,127.5,-41.25,37.5,45,30,52.5,97.5,59.166666666666664
535,168.75,120,-45,33.75,37.5,26.25,52.5,97.5,54.583333333333336
536,153.75,105,-45,30,33.75,22.5,48.75,93.75,49.166666666666664
537,150,93.75,-56.25,18.75,22.5,11.25,37.5,86.25,40.416666666666664
538,161.25,116.25,-52.5,22.5,22.5,11.25,41.25,90,45.833333333333336
539,172.5,127.5,-48.75,22.5,18.75,7.5,41.25,93.75,48.333333333333336
540,161.25,108.75,-48.75,18.75,15,7.5,37.5,90,43.333333333333336
541,150,101.25,-52.5,22.5,15,3.75,37.5,90,40.833333333333336
542,150,101.25,-52.5,26.25,18.75,3.75,37.5,90,41.666666666666664
543,161.25,112.5,-48.75,22.5,11.25,0,30,90,42.083333333333336
544,161.25,116.25,-45,18.75,7.5,0,30,90,42.083333333333336
545,165,108.75,-45,15,3.75,-7.5,26.25,82.5,38.75
546,172.5,108.75,-41.25,18.75,7.5,-7.5,26.25,82.5,40.833333333333336
547,168.75,105,-45,15,0,-15,18.75,78.75,36.25
548,161.25,97.5,-41.25,11.25,-3.75,-15,18.75,75,33.75
549,168.75,108.75,-30,18.75,0,-11.25,18.75,75,38.75
550,172.5,123.75,-18.75,22.5,3.75,-7.5,18.75,78.75,43.75
551,165,127.5,-11.25,30,7.5,-7.5,22.5,78.75,45.833333333333336
552,157.5,123.75,-11.25,30,7.5,-11.25,18.75,75,43.333333333333336
553,150,123.75,-7.5,33.75,7.5,-11.25,15,71.25,42.5
554,138.75,120,-3.75,37.5,11.25,-15,15,71.25,41.666666666666664
555,127.5,93.75,-18.75,18.75,-7.5,-33.75,-7.5,52.5,25.0
556,123.75,78.75,-22.5,7.5,-18.75,-45,-18.75,37.5,15.833333333333334
557,116.25,78.75,-15,15,-15,-45,-18.75,41.25,17.5
558,101.25,71.25,-7.5,26.25,-7.5,-37.5,-15,45,19.583333333333332
559,90,67.5,-3.75,26.25,-11.25,-37.5,-15,41.25,17.5
560,97.5,82.5,11.25,33.75,-3.75,-33.75,-11.25,41.25,24.166666666666668
561,105,67.5,15,33.75,0,-33.75,-15,37.5,23.333333333333332
562,75,33.75,18.75,33.75,0,-33.75,-18.75,33.75,15.833333333333334
563,56.25,52.5,18.75,33.75,-3.75,-41.25,-26.25,26.25,12.916666666666666
564,60,75,26.25,37.5,3.75,-37.5,-22.5,26.25,18.75
565,52.5,56.25,22.5,37.5,-3.75,-45,-33.75,18.75,11.666666666666666
566,37.5,37.5,15,30,-11.25,-56.25,-48.75,7.5,1.25
567,26.25,26.25,11.25,22.5,-15,-67.5,-60,-3.75,-6.666666666666667
568,22.5,26.25,15,22.5,-15,-67.5,-56.25,0,-5.833333333333333
569,22.5,11.25,18.75,22.5,-15,-60,-52.5,0,-5.833333333333333
570,7.5,-7.5,18.75,18.75,-18.75,-60,-56.25,-7.5,-11.666666666666666
571,-3.75,-11.25,18.75,15,-18.75,-63.75,-60,-15,-15.416666666666666
572,3.75,0,22.5,15,-18.75,-63.75,-60,-15,-12.916666666666666
573,18.75,22.5,33.75,18.75,-15,-60,-56.25,-15,-5.833333333333333
574,18.75,26.25,41.25,15,-15,-63.75,-60,-15,-5.833333333333333
575,-3.75,3.75,37.5,11.25,-22.5,-71.25,-67.5,-26.25,-15.416666666666666
576,-11.25,-3.75,37.5,11.25,-22.5,-71.25,-71.25,-30,-17.916666666666668
577,-3.75,11.25,45,22.5,-7.5,-60,-60,-18.75,-7.916666666666667
578,-7.5,3.75,45,22.5,-11.25,-60,-60,-22.5,-10.0
579,-33.75,-30,33.75,7.5,-22.5,-75,-75,-33.75,-25.416666666666668
580,-48.75,-52.5,22.5,-7.5,-37.5,-90,-90,-45,-38.75
581,-56.25,-52.5,22.5,-15,-41.25,-97.5,-97.5,-48.75,-42.916666666666664
582,-60,-37.5,30,-11.25,-37.5,-93.75,-93.75,-45,-38.75
583,-52.5,-26.25,33.75,-7.5,-37.5,-90,-86.25,-48.75,-35.0
584,-30,-15,37.5,-11.25,-37.5,-82.5,-86.25,-48.75,-30.416666666666668
585,-15,-3.75,41.25,-11.25,-33.75,-75,-78.75,-45,-24.583333333333332
586,-26.25,-7.5,45,-7.5,-30,-71.25,-78.75,-45,-24.583333333333332
587,-60,-33.75,41.25,-18.75,-41.25,-86.25,-90,-56.25,-38.333333333333336
588,-63.75,-37.5,37.5,-22.5,-45,-90,-93.75,-60,-41.666666666666664
589,-18.75,7.5,52.5,-3.75,-30,-75,-75,-41.25,-20.416666666666668
590,-3.75,15,56.25,3.75,-22.5,-75,-75,-41.25,-15.833333333333334
591,-41.25,-30,45,-7.5,-33.75,-86.25,-86.25,-52.5,-32.5
592,-71.25,-63.75,33.75,-26.25,-48.75,-101.25,-101.25,-63.75,-49.166666666666664
593,-75,-60,33.75,-30,-52.5,-101.25,-105,-67.5,-50.833333333333336
594,-60,-41.25,33.75,-30,-48.75,-101.25,-105,-67.5,-46.666666666666664
595,-67.5,-60,30,-37.5,-56.25,-105,-108.75,-75,-53.333333333333336
596,-105,-97.5,22.5,-48.75,-67.5,-116.25,-116.25,-82.5,-67.91666666666667
597,-120,-93.75,26.25,-48.75,-63.75,-112.5,-112.5,-78.75,-67.08333333333333
598,-82.5,-52.5,37.5,-41.25,-60,-105,-105,-71.25,-53.333333333333336
599,-56.25,-37.5,41.25,-37.5,-60,-105,-105,-71.25,-47.916666666666664
600,-60,-48.75,30,-48.75,-67.5,-112.5,-116.25,-82.5,-56.25
601,-86.25,-63.75,26.25,-48.75,-67.5,-116.25,-116.25,-86.25,-62.083333333333336
602,-105,-71.25,30,-41.25,-63.75,-112.5,-112.5,-78.75,-61.666666666666664
603,-78.75,-60,37.5,-30,-52.5,-101.25,-108.75,-71.25,-51.666666666666664
604,-60,-48.75,37.5,-33.75,-52.5,-101.25,-105,-71.25,-48.333333333333336
605,-63.75,-48.75,33.75,-37.5,-56.25,-105,-108.75,-71.25,-50.833333333333336
606,-75,-60,33.75,-37.5,-56.25,-105,-108.75,-71.25,-53.333333333333336
607,-97.5,-78.75,30,-41.25,-56.25,-108.75,-108.75,-75,-59.583333333333336
608,-108.75,-90,26.25,-52.5,-67.5,-116.25,-120,-82.5,-67.91666666666667
609,-93.75,-71.25,30,-48.75,-63.75,-112.5,-112.5,-78.75,-61.25
610,-75,-41.25,45,-30,-48.75,-93.75,-97.5,-63.75,-45.0
611,-75,-37.5,41.25,-33.75,-48.75,-97.5,-101.25,-67.5,-46.666666666666664
612,-82.5,-45,41.25,-30,-52.5,-97.5,-101.25,-71.25,-48.75
613,-93.75,-56.25,37.5,-30,-48.75,-97.5,-101.25,-71.25,-51.25
614,-93.75,-60,30,-33.75,-52.5,-101.25,-108.75,-75,-55.0
615,-86.25,-52.5,33.75,-30,-48.75,-97.5,-105,-75,-51.25
616,-93.75,-60,33.75,-30,-48.75,-97.5,-101.25,-71.25,-52.083333333333336
617,-93.75,-60,41.25,-22.5,-41.25,-90,-93.75,-63.75,-47.083333333333336
618,-75,-52.5,37.5,-26.25,-41.25,-90,-93.75,-67.5,-45.416666666666664
619,-101.25,-75,22.5,-41.25,-56.25,-101.25,-108.75,-78.75,-60.0
620,-131.25,-93.75,15,-48.75,-63.75,-108.75,-116.25,-86.25,-70.41666666666667
621,-120,-82.5,15,-52.5,-63.75,-108.75,-112.5,-86.25,-67.91666666666667
622,-86.25,-60,18.75,-48.75,-60,-101.25,-108.75,-82.5,-58.75
623,-63.75,-41.25,30,-33.75,-48.75,-90,-97.5,-71.25,-46.25
624,-63.75,-33.75,33.75,-30,-45,-86.25,-93.75,-67.5,-42.916666666666664
625,-78.75,-30,33.75,-22.5,-37.5,-82.5,-90,-60,-40.833333333333336
626,-75,-30,30,-18.75,-33.75,-86.25,-90,-56.25,-40.0
627,-56.25,-37.5,26.25,-26.25,-41.25,-93.75,-97.5,-63.75,-43.333333333333336
628,-60,-45,26.25,-30,-45,-93.75,-97.5,-63.75,-45.416666666666664
629,-78.75,-52.5,18.75,-30,-45,-93.75,-93.75,-63.75,-48.75
630,-82.5,-63.75,11.25,-37.5,-48.75,-97.5,-101.25,-67.5,-54.166666666666664
631,-82.5,-75,11.25,-41.25,-56.25,-101.25,-108.75,-75,-58.75
632,-82.5,-71.25,15,-41.25,-56.25,-105,-112.5,-78.75,-59.166666666666664
633,-78.75,-56.25,18.75,-41.25,-52.5,-101.25,-105,-75,-54.583333333333336
634,-90,-52.5,30,-33.75,-45,-90,-93.75,-63.75,-48.75
635,-78.75,-48.75,30,-30,-37.5,-86.25,-90,-60,-44.583333333333336
636,-63.75,-41.25,26.25,-30,-37.5,-86.25,-90,-60,-42.5
637,-56.25,-33.75,33.75,-18.75,-30,-78.75,-82.5,-48.75,-35.0
638,-45,-30,33.75,-11.25,-26.25,-75,-78.75,-45,-30.833333333333332
639,-52.5,-30,22.5,-26.25,-37.5,-86.25,-86.25,-52.5,-38.75
640,-67.5,-33.75,15,-33.75,-41.25,-90,-90,-56.25,-44.166666666666664
641,-60,-37.5,18.75,-30,-41.25,-86.25,-90,-56.25,-42.5
642,-67.5,-52.5,11.25,-37.5,-48.75,-93.75,-97.5,-63.75,-50.0
643,-75,-67.5,3.75,-45,-56.25,-101.25,-97.5,-67.5,-56.25
644,-56.25,-48.75,15,-41.25,-48.75,-93.75,-90,-56.25,-46.666666666666664
645,-48.75,-30,18.75,-37.5,-45,-90,-86.25,-56.25,-41.666666666666664
646,-75,-45,18.75,-41.25,-48.75,-93.75,-90,-56.25,-47.916666666666664
647,-105,-60,15,-41.25,-48.75,-90,-90,-56.25,-52.916666666666664
648,-112.5,-60,18.75,-33.75,-41.25,-82.5,-82.5,-52.5,-49.583333333333336
649,-86.25,-41.25,22.5,-30,-37.5,-82.5,-78.75,-48.75,-42.5
650,-56.25,-22.5,26.25,-22.5,-30,-75,-75,-41.25,-32.916666666666664
651,-52.5,-26.25,18.75,-26.25,-33.75,-82.5,-78.75,-45,-36.25
652,-60,-26.25,11.25,-33.75,-45,-90,-86.25,-52.5,-42.5
653,-60,-18.75,15,-33.75,-41.25,-86.25,-86.25,-52.5,-40.416666666666664
654,-56.25,-26.25,11.25,-41.25,-48.75,-90,-90,-60,-44.583333333333336
655,-56.25,-33.75,7.5,-45,-52.5,-93.75,-90,-60,-47.083333333333336
656,-75,-52.5,7.5,-48.75,-52.5,-93.75,-90,-60,-51.666666666666664
657,-86.25,-63.75,7.5,-52.5,-52.5,-93.75,-90,-63.75,-55.0
658,-67.5,-41.25,11.25,-48.75,-48.75,-93.75,-90,-60,-48.75
659,-52.5,-18.75,15,-41.25,-48.75,-90,-86.25,-56.25,-42.083333333333336
660,-71.25,-30,11.25,-45,-48.75,-90,-82.5,-56.25,-45.833333333333336
661,-67.5,-22.5,15,-37.5,-41.25,-82.5,-75,-48.75,-40.0
662,-56.25,-22.5,11.25,-33.75,-37.5,-82.5,-78.75,-52.5,-39.166666666666664
663,-71.25,-56.25,0,-52.5,-56.25,-101.25,-93.75,-67.5,-55.416666666666664
664,-78.75,-60,-3.75,-56.25,-63.75,-101.25,-97.5,-67.5,-58.75
665,-71.25,-37.5,3.75,-45,-52.5,-93.75,-86.25,-56.25,-48.75
666,-56.25,-18.75,7.5,-41.25,-45,-86.25,-82.5,-48.75,-41.25
667,-45,-26.25,7.5,-45,-52.5,-90,-82.5,-52.5,-42.916666666666664
668,-60,-56.25,-3.75,-60,-67.5,-101.25,-97.5,-63.75,-56.666666666666664
669,-78.75,-63.75,-3.75,-63.75,-67.5,-101.25,-97.5,-71.25,-60.833333333333336
670,-75,-41.25,7.5,-56.25,-56.25,-90,-90,-60,-51.25
671,-60,-22.5,7.5,-52.5,-56.25,-90,-86.25,-60,-46.666666666666664
672,-48.75,-11.25,11.25,-52.5,-56.25,-90,-82.5,-56.25,-42.916666666666664
673,-52.5,-15,7.5,-48.75,-56.25,-90,-86.25,-56.25,-44.166666666666664
674,-63.75,-30,0,-52.5,-60,-93.75,-90,-60,-50.0
675,-75,-52.5,-3.75,-60,-67.5,-101.25,-93.75,-63.75,-57.5
676,-82.5,-63.75,-11.25,-75,-78.75,-112.5,-105,-71.25,-66.66666666666667
677,-93.75,-75,-18.75,-78.75,-86.25,-123.75,-116.25,-78.75,-74.58333333333333
678,-97.5,-71.25,-11.25,-71.25,-78.75,-116.25,-108.75,-71.25,-69.58333333333333
679,-101.25,-63.75,-3.75,-71.25,-75,-112.5,-101.25,-71.25,-66.66666666666667
680,-75,-48.75,-11.25,-82.5,-82.5,-112.5,-105,-75,-65.83333333333333
681,-60,-45,-7.5,-78.75,-78.75,-105,-97.5,-71.25,-60.416666666666664
682,-52.5,-33.75,3.75,-71.25,-75,-97.5,-90,-63.75,-53.333333333333336
683,-71.25,-45,3.75,-71.25,-75,-101.25,-93.75,-63.75,-57.5
684,-93.75,-63.75,0,-75,-78.75,-108.75,-101.25,-67.5,-65.41666666666667
685,-90,-48.75,11.25,-60,-63.75,-97.5,-90,-56.25,-55.0
686,-67.5,-37.5,3.75,-60,-63.75,-101.25,-93.75,-60,-53.333333333333336
687,-56.25,-48.75,-11.25,-75,-82.5,-120,-108.75,-75,-64.16666666666667
688,-63.75,-60,-18.75,-86.25,-97.5,-131.25,-120,-86.25,-73.75
689,-56.25,-45,-15,-82.5,-90,-120,-108.75,-75,-65.83333333333333
690,-45,-33.75,-11.25,-78.75,-82.5,-108.75,-101.25,-67.5,-58.75
691,-60,-52.5,-18.75,-86.25,-90,-120,-108.75,-78.75,-68.33333333333333
692,-108.75,-82.5,-22.5,-97.5,-97.5,-131.25,-120,-86.25,-82.91666666666667
693,-138.75,-108.75,-30,-108.75,-108.75,-135,-127.5,-93.75,-94.58333333333333
694,-123.75,-101.25,-26.25,-105,-105,-131.25,-120,-90,-89.16666666666667
695,-105,-71.25,-7.5,-86.25,-86.25,-116.25,-105,-75,-72.5
696,-86.25,-48.75,3.75,-75,-78.75,-108.75,-97.5,-67.5,-62.083333333333336
697,-48.75,-15,11.25,-67.5,-71.25,-101.25,-90,-60,-49.166666666666664
698,-48.75,-26.25,7.5,-67.5,-71.25,-105,-93.75,-60,-51.666666666666664
699,-78.75,-67.5,-7.5,-86.25,-93.75,-127.5,-112.5,-82.5,-72.91666666666667
700,-97.5,-75,-7.5,-90,-97.5,-127.5,-116.25,-82.5,-77.08333333333333
701,-101.25,-71.25,-15,-90,-93.75,-123.75,-112.5,-78.75,-76.25
702,-108.75,-86.25,-22.5,-97.5,-101.25,-131.25,-120,-82.5,-83.33333333333333
703,-112.5,-93.75,-26.25,-101.25,-105,-135,-123.75,-86.25,-87.08333333333333
704,-105,-93.75,-22.5,-101.25,-105,-135,-123.75,-86.25,-85.83333333333333
705,-93.75,-86.25,-15,-97.5,-105,-131.25,-116.25,-82.5,-80.83333333333333
706,-86.25,-63.75,-7.5,-93.75,-101.25,-127.5,-116.25,-78.75,-75.0
707,-86.25,-52.5,-7.5,-93.75,-97.5,-127.5,-116.25,-86.25,-74.16666666666667
708,-97.5,-67.5,-7.5,-90,-97.5,-127.5,-116.25,-86.25,-76.66666666666667
709,-101.25,-67.5,-3.75,-86.25,-97.5,-127.5,-116.25,-82.5,-75.83333333333333
710,-86.25,-60,-7.5,-86.25,-97.5,-127.5,-116.25,-82.5,-73.75
711,-78.75,-60,-7.5,-86.25,-97.5,-127.5,-116.25,-82.5,-72.91666666666667
712,-52.5,-33.75,-7.5,-82.5,-93.75,-123.75,-116.25,-82.5,-65.83333333333333
713,-56.25,-33.75,-11.25,-90,-101.25,-131.25,-120,-86.25,-70.0
714,-90,-63.75,-18.75,-97.5,-108.75,-138.75,-127.5,-93.75,-82.08333333333333
715,-97.5,-71.25,-18.75,-101.25,-112.5,-138.75,-127.5,-93.75,-84.58333333333333
716,-75,-63.75,-7.5,-97.5,-105,-131.25,-120,-86.25,-76.25
717,-75,-75,-11.25,-101.25,-112.5,-138.75,-123.75,-90,-80.83333333333333
718,-90,-75,-11.25,-97.5,-108.75,-135,-123.75,-90,-81.25
719,-86.25,-60,-3.75,-86.25,-97.5,-127.5,-112.5,-78.75,-72.5
720,-97.5,-60,-3.75,-82.5,-93.75,-123.75,-108.75,-75,-71.66666666666667
721,-120,-67.5,0,-82.5,-93.75,-123.75,-108.75,-75,-74.58333333333333
722,-116.25,-82.5,-15,-93.75,-105,-135,-123.75,-90,-84.58333333333333
723,-108.75,-90,-22.5,-101.25,-112.5,-142.5,-131.25,-93.75,-89.16666666666667
724,-93.75,-82.5,-18.75,-101.25,-112.5,-142.5,-127.5,-90,-85.41666666666667
725,-75,-71.25,-22.5,-105,-116.25,-146.25,-131.25,-93.75,-84.58333333333333
726,-75,-67.5,-18.75,-101.25,-108.75,-142.5,-127.5,-86.25,-80.83333333333333
727,-101.25,-82.5,-22.5,-97.5,-112.5,-142.5,-127.5,-82.5,-85.41666666666667
728,-123.75,-97.5,-30,-108.75,-120,-146.25,-127.5,-90,-93.75
729,-123.75,-86.25,-18.75,-105,-112.5,-135,-120,-86.25,-87.5
730,-97.5,-60,-11.25,-97.5,-108.75,-127.5,-116.25,-86.25,-78.33333333333333
731,-101.25,-71.25,-15,-101.25,-112.5,-135,-120,-90,-82.91666666666667
732,-97.5,-71.25,-22.5,-108.75,-120,-142.5,-127.5,-93.75,-87.08333333333333
733,-93.75,-63.75,-15,-97.5,-112.5,-135,-123.75,-86.25,-80.83333333333333
734,-105,-75,-15,-90,-105,-135,-120,-82.5,-80.83333333333333
735,-101.25,-75,-22.5,-97.5,-108.75,-138.75,-123.75,-86.25,-83.75
736,-97.5,-71.25,-30,-105,-120,-142.5,-127.5,-86.25,-86.66666666666667
737,-101.25,-75,-26.25,-105,-116.25,-138.75,-123.75,-82.5,-85.41666666666667
738,-116.25,-90,-26.25,-105,-112.5,-138.75,-120,-82.5,-87.91666666666667
739,-108.75,-86.25,-22.5,-101.25,-108.75,-135,-120,-78.75,-84.58333333333333
740,-71.25,-60,-18.75,-101.25,-108.75,-135,-116.25,-78.75,-76.66666666666667
741,-71.25,-52.5,-18.75,-105,-112.5,-135,-120,-82.5,-77.5
742,-108.75,-67.5,-18.75,-105,-112.5,-135,-120,-86.25,-83.75
743,-131.25,-67.5,-3.75,-93.75,-105,-127.5,-112.5,-75,-79.58333333333333
744,-108.75,-48.75,3.75,-82.5,-97.5,-120,-105,-67.5,-69.58333333333333
745,-45,0,11.25,-67.5,-82.5,-108.75,-93.75,-56.25,-49.166666666666664
746,-7.5,33.75,18.75,-56.25,-71.25,-101.25,-90,-48.75,-35.833333333333336
747,-37.5,7.5,15,-63.75,-78.75,-108.75,-97.5,-60,-47.083333333333336
748,-90,-41.25,0,-78.75,-93.75,-123.75,-112.5,-75,-68.33333333333333
749,-105,-41.25,7.5,-75,-90,-123.75,-108.75,-71.25,-67.5
750,-101.25,-33.75,15,-71.25,-90,-123.75,-108.75,-71.25,-65.0
751,-120,-63.75,11.25,-82.5,-97.5,-127.5,-120,-78.75,-75.41666666666667
752,-116.25,-56.25,18.75,-78.75,-90,-123.75,-112.5,-75,-70.41666666666667
753,-71.25,-7.5,45,-48.75,-67.5,-101.25,-90,-56.25,-44.166666666666664
754,-52.5,11.25,48.75,-41.25,-63.75,-101.25,-90,-56.25,-38.333333333333336
755,-52.5,11.25,45,-45,-67.5,-105,-93.75,-60,-40.833333333333336
756,-56.25,15,45,-45,-67.5,-101.25,-93.75,-60,-40.416666666666664
757,-56.25,26.25,52.5,-30,-56.25,-93.75,-86.25,-52.5,-32.916666666666664
758,-60,15,56.25,-22.5,-52.5,-90,-86.25,-48.75,-32.083333333333336
759,-52.5,-7.5,48.75,-30,-63.75,-101.25,-93.75,-60,-40.0
760,-48.75,-3.75,52.5,-30,-56.25,-97.5,-86.25,-52.5,-35.833333333333336
761,-48.75,22.5,67.5,-15,-41.25,-78.75,-67.5,-33.75,-21.666666666666668
762,-41.25,37.5,71.25,-11.25,-33.75,-71.25,-60,-26.25,-15.0
763,-48.75,26.25,60,-22.5,-45,-75,-63.75,-30,-22.083333333333332
764,-60,15,45,-37.5,-52.5,-82.5,-71.25,-33.75,-30.833333333333332
765,-71.25,7.5,33.75,-45,-56.25,-82.5,-71.25,-37.5,-35.833333333333336
766,-101.25,-22.5,18.75,-56.25,-67.5,-90,-75,-41.25,-48.333333333333336
767,-105,-18.75,7.5,-56.25,-67.5,-90,-75,-41.25,-49.583333333333336
768,-56.25,18.75,0,-52.5,-60,-82.5,-71.25,-30,-37.083333333333336
769,-11.25,45,-7.5,-48.75,-56.25,-78.75,-63.75,-22.5,-27.083333333333332
770,-7.5,41.25,-15,-52.5,-56.25,-82.5,-63.75,-26.25,-29.166666666666668
771,-22.5,22.5,-22.5,-56.25,-60,-86.25,-71.25,-30,-36.25
772,-45,15,-26.25,-63.75,-67.5,-86.25,-71.25,-30,-41.666666666666664
773,-52.5,11.25,-30,-71.25,-71.25,-90,-71.25,-30,-45.0
774,-48.75,-3.75,-41.25,-82.5,-78.75,-101.25,-82.5,-37.5,-52.916666666666664
775,-52.5,-26.25,-48.75,-97.5,-93.75,-112.5,-93.75,-45,-63.333333333333336
776,-52.5,-30,-52.5,-105,-97.5,-116.25,-93.75,-52.5,-66.66666666666667
777,-52.5,-26.25,-48.75,-105,-97.5,-116.25,-93.75,-52.5,-65.83333333333333
778,-45,-30,-37.5,-101.25,-93.75,-112.5,-90,-45,-61.666666666666664
779,-33.75,-30,-45,-112.5,-108.75,-127.5,-108.75,-63.75,-70.0
780,-33.75,-18.75,-48.75,-112.5,-112.5,-131.25,-112.5,-71.25,-71.25
781,-26.25,-7.5,-26.25,-90,-90,-112.5,-97.5,-56.25,-56.25
782,-26.25,-11.25,-22.5,-82.5,-82.5,-112.5,-93.75,-52.5,-53.75
783,-45,-33.75,-33.75,-93.75,-97.5,-123.75,-105,-63.75,-66.25
784,-60,-41.25,-33.75,-97.5,-101.25,-127.5,-105,-63.75,-70.0
785,-75,-37.5,-22.5,-90,-93.75,-116.25,-101.25,-52.5,-65.41666666666667
786,-75,-45,-22.5,-90,-93.75,-120,-105,-60,-67.91666666666667
787,-63.75,-45,-26.25,-97.5,-101.25,-131.25,-112.5,-67.5,-71.66666666666667
788,-56.25,-37.5,-22.5,-101.25,-105,-131.25,-108.75,-67.5,-70.0
789,-63.75,-37.5,-26.25,-108.75,-112.5,-135,-116.25,-75,-75.0
790,-71.25,-41.25,-26.25,-108.75,-112.5,-135,-120,-78.75,-77.08333333333333
791,-82.5,-45,-22.5,-105,-108.75,-131.25,-116.25,-78.75,-76.66666666666667
792,-120,-75,-30,-112.5,-120,-146.25,-131.25,-90,-91.66666666666667
793,-127.5,-90,-33.75,-116.25,-127.5,-153.75,-135,-93.75,-97.5
794,-97.5,-78.75,-33.75,-112.5,-123.75,-150,-135,-93.75,-91.66666666666667
795,-67.5,-63.75,-33.75,-116.25,-127.5,-153.75,-135,-93.75,-87.91666666666667
796,-78.75,-71.25,-37.5,-123.75,-131.25,-157.5,-142.5,-101.25,-93.75
797,-108.75,-82.5,-41.25,-127.5,-138.75,-161.25,-146.25,-105,-101.25
798,-116.25,-82.5,-37.5,-127.5,-135,-157.5,-142.5,-101.25,-100.0
799,-101.25,-75,-37.5,-127.5,-135,-157.5,-142.5,-97.5,-97.08333333333333
800,-90,-75,-37.5,-127.5,-135,-157.5,-138.75,-97.5,-95.41666666666667
801,-86.25,-67.5,-30,-120,-127.5,-146.25,-131.25,-93.75,-89.16666666666667
802,-93.75,-63.75,-22.5,-116.25,-120,-138.75,-123.75,-86.25,-85.0
803,-105,-75,-26.25,-123.75,-127.5,-146.25,-131.25,-90,-91.66666666666667
804,-112.5,-82.5,-26.25,-123.75,-127.5,-153.75,-138.75,-93.75,-95.41666666666667
805,-120,-86.25,-26.25,-120,-127.5,-157.5,-138.75,-93.75,-96.66666666666667
806,-123.75,-90,-30,-116.25,-131.25,-157.5,-138.75,-97.5,-98.33333333333333
807,-108.75,-82.5,-33.75,-120,-131.25,-153.75,-138.75,-97.5,-96.25
808,-105,-78.75,-37.5,-120,-127.5,-150,-131.25,-97.5,-94.16666666666667
809,-108.75,-78.75,-41.25,-123.75,-131.25,-150,-135,-97.5,-96.25
810,-105,-78.75,-41.25,-120,-127.5,-150,-135,-97.5,-95.0
811,-105,-75,-37.5,-120,-127.5,-150,-131.25,-93.75,-93.33333333333333
812,-105,-75,-33.75,-123.75,-131.25,-153.75,-135,-97.5,-95.0
813,-108.75,-78.75,-37.5,-127.5,-135,-153.75,-138.75,-105,-98.33333333333333
814,-108.75,-82.5,-37.5,-127.5,-135,-157.5,-142.5,-105,-99.58333333333333
815,-93.75,-67.5,-30,-120,-127.5,-146.25,-135,-97.5,-90.83333333333333
816,-93.75,-48.75,-22.5,-112.5,-116.25,-135,-120,-82.5,-81.25
817,-93.75,-41.25,-15,-101.25,-105,-127.5,-112.5,-75,-74.58333333333333
818,-90,-60,-15,-101.25,-108.75,-138.75,-123.75,-86.25,-80.41666666666667
819,-86.25,-82.5,-22.5,-105,-123.75,-161.25,-150,-112.5,-93.75
820,-71.25,-90,0,-82.5,-120,-165,-161.25,-127.5,-90.83333333333333
821,-78.75,-120,33.75,-45,-112.5,-183.75,-191.25,-157.5,-95.0
822,-105,-165,75,-7.5,-112.5,-206.25,-225,-195,-104.58333333333333
823,-101.25,-180,127.5,33.75,-108.75,-225,-251.25,-225,-103.33333333333333
824,-97.5,-176.25,183.75,82.5,-93.75,-225,-258.75,-232.5,-90.83333333333333
825,-93.75,-165,221.25,131.25,-63.75,-210,-247.5,-225,-72.5
826,-56.25,-101.25,266.25,210,0,-161.25,-206.25,-187.5,-26.25
827,-11.25,-33.75,303.75,292.5,71.25,-105,-153.75,-142.5,24.583333333333332
828,37.5,11.25,318.75,352.5,131.25,-48.75,-105,-101.25,66.25
829,93.75,78.75,333.75,412.5,195,15,-45,-45,115.41666666666667
830,138.75,146.25,348.75,465,258.75,86.25,30,26.25,166.66666666666666
831,191.25,187.5,337.5,498.75,307.5,150,93.75,90,206.25
832,285,277.5,318.75,551.25,390,243.75,195,187.5,272.0833333333333
833,371.25,405,300,600,487.5,363.75,318.75,307.5,350.4166666666667
834,420,521.25,262.5,603.75,555,472.5,438.75,420,410.4166666666667
835,480,633.75,195,581.25,618.75,588.75,566.25,547.5,467.9166666666667
836,521.25,765,161.25,611.25,731.25,742.5,727.5,701.25,551.25
837,551.25,948.75,165,686.25,877.5,922.5,915,877.5,660.4166666666666
838,603.75,1185,108.75,682.5,982.5,1098.75,1121.25,1087.5,763.3333333333334
839,641.25,1387.5,-15,603.75,1046.25,1256.25,1320,1293.75,837.0833333333334
840,678.75,1466.25,-138.75,502.5,1083.75,1376.25,1462.5,1440,874.5833333333334
841,727.5,1518.75,-258.75,345,1072.5,1455,1575,1548.75,887.0833333333334
842,712.5,1552.5,-333.75,221.25,1076.25,1533.75,1668.75,1631.25,895.8333333333334
843,611.25,1462.5,-333.75,210,1128.75,1601.25,1713.75,1638.75,892.5
844,517.5,1361.25,-315,217.5,1188.75,1665,1740,1620,888.3333333333334
845,435,1305,-330,150,1196.25,1676.25,1736.25,1590,862.0833333333334
846,352.5,1218.75,-356.25,33.75,1121.25,1597.5,1646.25,1500,790.4166666666666
847,243.75,1057.5,-348.75,-78.75,975,1410,1451.25,1320,670.0
848,112.5,870,-318.75,-180,776.25,1140,1173.75,1065,515.4166666666666
849,-7.5,693.75,-307.5,-303.75,525,825,877.5,825,347.5
850,-123.75,517.5,-330,-461.25,236.25,498.75,585,596.25,168.75
851,-228.75,363.75,-352.5,-600,-15,225,333.75,390,12.916666666666666
852,-277.5,258.75,-345,-656.25,-153.75,52.5,157.5,228.75,-81.66666666666667
853,-262.5,195,-307.5,-618.75,-176.25,-15,56.25,116.25,-112.5
854,-270,105,-303.75,-592.5,-187.5,-60,-11.25,37.5,-142.5
855,-285,37.5,-318.75,-555,-176.25,-63.75,-26.25,11.25,-152.91666666666666
856,-243.75,30,-315,-502.5,-146.25,-45,-11.25,15,-135.41666666666666
857,-198.75,37.5,-303.75,-453.75,-138.75,-45,-7.5,18.75,-121.25
858,-187.5,18.75,-292.5,-427.5,-165,-75,-30,3.75,-128.33333333333334
859,-187.5,-11.25,-277.5,-397.5,-180,-101.25,-56.25,-15,-136.25
860,-165,-15,-243.75,-348.75,-161.25,-97.5,-56.25,-15,-122.5
861,-138.75,0,-213.75,-292.5,-131.25,-78.75,-45,-7.5,-100.83333333333333
862,-101.25,37.5,-176.25,-221.25,-78.75,-41.25,-15,15,-64.58333333333333
863,-60,67.5,-135,-150,-26.25,-7.5,11.25,33.75,-29.583333333333332
864,-33.75,86.25,-93.75,-97.5,7.5,11.25,18.75,41.25,-6.666666666666667
865,-41.25,86.25,-56.25,-56.25,26.25,18.75,22.5,45,5.0
866,-75,48.75,-48.75,-48.75,22.5,3.75,3.75,30,-7.083333333333333
867,-82.5,11.25,-52.5,-52.5,7.5,-11.25,-15,7.5,-20.833333333333332
868,-90,-11.25,-45,-52.5,0,-18.75,-22.5,-3.75,-27.083333333333332
869,-97.5,-3.75,-30,-41.25,3.75,-18.75,-18.75,-7.5,-23.75
870,-78.75,7.5,-26.25,-41.25,0,-26.25,-26.25,-11.25,-22.5
871,-56.25,0,-26.25,-48.75,-15,-41.25,-41.25,-22.5,-27.916666666666668
872,-52.5,-7.5,-30,-60,-26.25,-52.5,-52.5,-33.75,-35.0
873,-67.5,-18.75,-26.25,-63.75,-30,-60,-60,-37.5,-40.416666666666664
874,-90,-30,-18.75,-60,-33.75,-63.75,-63.75,-41.25,-44.583333333333336
875,-82.5,-11.25,-11.25,-45,-30,-60,-60,-33.75,-37.083333333333336
876,-37.5,11.25,-11.25,-45,-30,-60,-60,-37.5,-30.0
877,-15,26.25,-3.75,-37.5,-22.5,-52.5,-56.25,-33.75,-21.666666666666668
878,-26.25,18.75,-3.75,-30,-22.5,-52.5,-56.25,-30,-22.5
879,-45,-7.5,-7.5,-30,-26.25,-60,-60,-33.75,-30.0
880,-48.75,-18.75,-7.5,-37.5,-30,-63.75,-63.75,-37.5,-34.166666666666664
881,-37.5,-3.75,-7.5,-33.75,-33.75,-63.75,-63.75,-33.75,-30.833333333333332
882,-37.5,-3.75,-3.75,-33.75,-33.75,-63.75,-63.75,-37.5,-30.833333333333332
883,-52.5,-26.25,-11.25,-41.25,-41.25,-75,-75,-52.5,-41.666666666666664
884,-52.5,-30,-15,-45,-45,-75,-78.75,-56.25,-44.166666666666664
885,-48.75,-30,-18.75,-48.75,-48.75,-78.75,-78.75,-56.25,-45.416666666666664
886,-52.5,-26.25,-15,-48.75,-48.75,-78.75,-78.75,-56.25,-45.0
887,-37.5,0,-11.25,-41.25,-41.25,-71.25,-71.25,-48.75,-35.833333333333336
888,-22.5,15,0,-26.25,-33.75,-60,-63.75,-37.5,-25.416666666666668
889,-22.5,15,3.75,-18.75,-26.25,-56.25,-60,-33.75,-22.083333333333332
890,-22.5,15,-3.75,-18.75,-30,-60,-63.75,-37.5,-24.583333333333332
891,-30,0,-15,-30,-41.25,-71.25,-71.25,-45,-33.75
892,-33.75,-11.25,-15,-30,-37.5,-71.25,-67.5,-41.25,-34.166666666666664
893,-41.25,-22.5,-15,-30,-33.75,-67.5,-67.5,-41.25,-35.416666666666664
894,-63.75,-41.25,-18.75,-33.75,-41.25,-71.25,-71.25,-48.75,-43.333333333333336
895,-56.25,-30,-15,-30,-37.5,-67.5,-67.5,-45,-38.75
896,-33.75,-7.5,-15,-30,-33.75,-67.5,-63.75,-41.25,-32.5
897,-33.75,-11.25,-15,-30,-30,-60,-60,-33.75,-30.416666666666668
898,-37.5,-11.25,-15,-30,-30,-60,-56.25,-30,-30.0
899,-30,3.75,-7.5,-18.75,-30,-52.5,-52.5,-26.25,-23.75
900,-48.75,-11.25,-15,-22.5,-33.75,-63.75,-56.25,-33.75,-31.666666666666668
901,-37.5,-11.25,-18.75,-22.5,-30,-63.75,-60,-37.5,-31.25
902,-7.5,11.25,-15,-11.25,-18.75,-56.25,-52.5,-26.25,-19.583333333333332
903,18.75,33.75,-3.75,0,-7.5,-45,-41.25,-15,-6.666666666666667
904,18.75,30,-11.25,-7.5,-15,-52.5,-45,-22.5,-11.666666666666666
905,0,15,-18.75,-11.25,-18.75,-56.25,-48.75,-26.25,-18.333333333333332
906,-3.75,11.25,-18.75,-11.25,-15,-52.5,-48.75,-22.5,-17.916666666666668
907,3.75,11.25,-18.75,-11.25,-15,-52.5,-48.75,-22.5,-17.083333333333332
908,3.75,7.5,-22.5,-15,-15,-52.5,-48.75,-22.5,-18.333333333333332
909,-7.5,15,-18.75,-11.25,-11.25,-45,-41.25,-18.75,-15.416666666666666
910,-15,22.5,-11.25,-3.75,-3.75,-33.75,-30,-7.5,-9.166666666666666
911,-7.5,26.25,-11.25,0,0,-30,-26.25,-7.5,-6.25
912,-3.75,33.75,-7.5,3.75,3.75,-26.25,-22.5,0,-2.0833333333333335
913,15,37.5,-3.75,15,15,-18.75,-11.25,7.5,6.25
914,11.25,22.5,-3.75,22.5,15,-18.75,-11.25,7.5,5.0
915,-15,7.5,-22.5,3.75,0,-30,-26.25,-3.75,-9.583333333333334
916,-7.5,22.5,-26.25,3.75,0,-30,-26.25,-3.75,-7.5
917,15,33.75,-18.75,11.25,11.25,-18.75,-11.25,7.5,3.3333333333333335
918,33.75,33.75,-22.5,15,18.75,-11.25,-7.5,11.25,7.916666666666667
919,41.25,30,-30,7.5,7.5,-22.5,-15,3.75,2.5
920,33.75,22.5,-26.25,11.25,7.5,-22.5,-15,7.5,2.0833333333333335
921,18.75,22.5,-22.5,15,11.25,-15,-7.5,11.25,3.75
922,3.75,26.25,-22.5,15,15,-11.25,-7.5,11.25,3.3333333333333335
923,11.25,30,-22.5,15,11.25,-15,-11.25,11.25,3.3333333333333335
924,30,41.25,-22.5,18.75,11.25,-11.25,-7.5,11.25,7.916666666666667
925,52.5,71.25,-7.5,41.25,33.75,3.75,11.25,26.25,25.833333333333332
926,71.25,90,-3.75,45,41.25,11.25,15,33.75,33.75
927,60,67.5,-18.75,37.5,30,0,7.5,26.25,23.333333333333332
928,37.5,37.5,-30,26.25,22.5,-11.25,-3.75,22.5,11.25
929,37.5,37.5,-30,26.25,22.5,-7.5,0,26.25,12.5
930,52.5,45,-30,26.25,22.5,-7.5,3.75,30,15.833333333333334
931,71.25,60,-26.25,33.75,30,3.75,11.25,37.5,24.583333333333332
932,67.5,60,-26.25,33.75,33.75,15,18.75,37.5,26.666666666666668
933,48.75,45,-30,30,33.75,15,22.5,37.5,22.5
934,37.5,41.25,-26.25,30,33.75,15,22.5,41.25,21.666666666666668
935,33.75,37.5,-33.75,26.25,30,7.5,15,33.75,16.666666666666668
936,26.25,33.75,-37.5,22.5,26.25,7.5,11.25,33.75,13.75
937,56.25,67.5,-22.5,45,45,26.25,33.75,52.5,33.75
938,112.5,116.25,-11.25,63.75,63.75,41.25,48.75,71.25,56.25
939,135,123.75,-15,63.75,63.75,45,52.5,75,60.416666666666664
940,108.75,90,-33.75,48.75,48.75,30,41.25,60,43.75
941,82.5,67.5,-45,37.5,41.25,22.5,33.75,52.5,32.5
942,123.75,105,-37.5,48.75,48.75,30,41.25,63.75,47.083333333333336
943,157.5,138.75,-30,56.25,60,41.25,52.5,75,61.25
944,101.25,86.25,-41.25,41.25,45,30,41.25,63.75,40.833333333333336
945,60,52.5,-48.75,30,37.5,22.5,30,56.25,26.666666666666668
946,75,67.5,-56.25,26.25,33.75,18.75,30,52.5,27.5
947,93.75,82.5,-56.25,30,30,18.75,33.75,56.25,32.083333333333336
948,97.5,86.25,-52.5,30,30,22.5,37.5,63.75,35.0
949,105,105,-37.5,52.5,52.5,45,56.25,78.75,50.833333333333336
950,108.75,116.25,-33.75,63.75,60,52.5,63.75,90,57.916666666666664
951,101.25,105,-45,52.5,48.75,41.25,56.25,82.5,49.166666666666664
952,97.5,97.5,-52.5,48.75,45,37.5,52.5,82.5,45.416666666666664
953,131.25,120,-48.75,48.75,45,45,60,86.25,54.166666666666664
954,161.25,127.5,-56.25,45,41.25,41.25,56.25,86.25,55.833333333333336
955,157.5,116.25,-63.75,37.5,33.75,33.75,48.75,82.5,49.583333333333336
956,146.25,112.5,-63.75,33.75,33.75,33.75,52.5,86.25,48.333333333333336
957,138.75,105,-67.5,22.5,22.5,26.25,48.75,78.75,41.666666666666664
958,146.25,116.25,-60,30,26.25,33.75,56.25,86.25,48.333333333333336
959,165,146.25,-41.25,48.75,45,48.75,71.25,105,65.41666666666667
960,165,146.25,-45,45,37.5,45,67.5,101.25,62.5
961,168.75,161.25,-37.5,52.5,41.25,45,67.5,105,67.08333333333333
962,176.25,168.75,-33.75,56.25,48.75,52.5,71.25,112.5,72.5
963,157.5,138.75,-52.5,41.25,30,33.75,56.25,97.5,55.833333333333336
964,138.75,120,-60,30,18.75,26.25,52.5,90,46.25
965,138.75,116.25,-60,30,15,26.25,52.5,93.75,45.833333333333336
966,150,127.5,-52.5,37.5,22.5,33.75,60,105,53.75
967,161.25,146.25,-48.75,37.5,22.5,30,60,105,57.083333333333336
968,180,153.75,-48.75,30,11.25,26.25,52.5,97.5,55.833333333333336
969,172.5,138.75,-52.5,26.25,7.5,22.5,48.75,93.75,50.833333333333336
970,153.75,131.25,-48.75,26.25,7.5,18.75,45,90,47.083333333333336
971,157.5,142.5,-45,26.25,11.25,18.75,48.75,93.75,50.416666666666664
972,150,146.25,-41.25,33.75,7.5,22.5,52.5,97.5,52.083333333333336
973,135,142.5,-33.75,37.5,11.25,22.5,52.5,101.25,52.083333333333336
974,150,138.75,-37.5,37.5,11.25,15,45,93.75,50.416666666666664
975,165,135,-45,30,3.75,7.5,37.5,86.25,46.666666666666664
976,153.75,135,-37.5,33.75,0,7.5,37.5,86.25,46.25
977,153.75,146.25,-30,37.5,7.5,11.25,41.25,90,50.833333333333336
978,161.25,157.5,-26.25,41.25,11.25,11.25,41.25,90,54.166666666666664
979,146.25,123.75,-22.5,41.25,7.5,7.5,37.5,86.25,47.5
980,123.75,86.25,-22.5,30,-3.75,-3.75,26.25,75,34.583333333333336
981,120,105,-22.5,26.25,-11.25,-7.5,22.5,67.5,33.333333333333336
982,108.75,120,-22.5,22.5,-15,-15,15,60,30.416666666666668
983,101.25,112.5,-15,30,-11.25,-15,15,56.25,30.416666666666668
984,101.25,112.5,-7.5,30,-7.5,-15,15,56.25,31.666666666666668
985,108.75,123.75,0,37.5,-3.75,-15,15,56.25,35.833333333333336
986,120,127.5,7.5,45,0,-15,11.25,56.25,39.166666666666664
987,97.5,101.25,0,37.5,-11.25,-22.5,3.75,45,27.916666666666668
988,67.5,67.5,-7.5,26.25,-22.5,-33.75,-7.5,30,13.333333333333334
989,48.75,48.75,-11.25,15,-37.5,-48.75,-22.5,18.75,1.25
990,37.5,45,-11.25,15,-37.5,-52.5,-26.25,15,-1.6666666666666667
991,18.75,37.5,0,18.75,-33.75,-52.5,-26.25,11.25,-2.9166666666666665
992,22.5,45,11.25,18.75,-30,-45,-22.5,11.25,1.25
993,15,41.25,15,18.75,-30,-45,-26.25,7.5,-0.4166666666666667
994,0,26.25,11.25,11.25,-37.5,-60,-41.25,0,-10.0
995,3.75,26.25,7.5,11.25,-41.25,-63.75,-45,-3.75,-11.666666666666666
996,33.75,56.25,18.75,15,-33.75,-56.25,-37.5,3.75,0.0
997,37.5,75,37.5,26.25,-22.5,-41.25,-26.25,11.25,10.833333333333334
998,18.75,67.5,37.5,30,-18.75,-37.5,-22.5,7.5,9.166666666666666
999,-7.5,37.5,22.5,18.75,-30,-48.75,-37.5,-7.5,-5.833333333333333
1000,-26.25,3.75,15,0,-45,-63.75,-52.5,-22.5,-21.25
1001,-26.25,0,18.75,0,-45,-63.75,-52.5,-22.5,-21.25
1002,-15,3.75,22.5,3.75,-41.25,-63.75,-52.5,-18.75,-17.916666666666668
1003,0,7.5,18.75,-11.25,-52.5,-71.25,-60,-30,-22.083333333333332
1004,-7.5,11.25,18.75,-15,-56.25,-78.75,-63.75,-33.75,-25.0
1005,-22.5,0,18.75,-18.75,-56.25,-75,-63.75,-37.5,-28.333333333333332
1006,-67.5,-45,0,-37.5,-71.25,-93.75,-82.5,-60,-50.833333333333336
1007,-108.75,-67.5,-3.75,-48.75,-78.75,-101.25,-90,-63.75,-62.5
1008,-105,-48.75,3.75,-41.25,-75,-93.75,-82.5,-60,-55.833333333333336
1009,-78.75,-22.5,18.75,-22.5,-60,-78.75,-71.25,-45,-40.0
1010,-37.5,7.5,26.25,-18.75,-56.25,-78.75,-67.5,-37.5,-29.166666666666668
1011,-22.5,15,30,-18.75,-56.25,-82.5,-71.25,-41.25,-27.5
1012,-52.5,-3.75,33.75,-22.5,-56.25,-82.5,-71.25,-41.25,-32.916666666666664
1013,-63.75,-15,30,-30,-63.75,-90,-78.75,-45,-39.583333333333336
1014,-75,-41.25,18.75,-45,-75,-101.25,-90,-56.25,-51.666666666666664
1015,-86.25,-60,7.5,-56.25,-86.25,-108.75,-97.5,-67.5,-61.666666666666664
1016,-75,-52.5,3.75,-63.75,-90,-108.75,-97.5,-67.5,-61.25
1017,-82.5,-48.75,7.5,-67.5,-93.75,-112.5,-101.25,-67.5,-62.916666666666664
1018,-97.5,-48.75,11.25,-63.75,-90,-108.75,-97.5,-67.5,-62.5
1019,-97.5,-45,11.25,-63.75,-93.75,-112.5,-101.25,-71.25,-63.75
1020,-82.5,-30,18.75,-60,-86.25,-105,-93.75,-67.5,-56.25
1021,-101.25,-37.5,22.5,-56.25,-86.25,-105,-93.75,-63.75,-57.916666666666664
1022,-127.5,-48.75,18.75,-56.25,-82.5,-105,-93.75,-63.75,-62.083333333333336
1023,-112.5,-45,15,-56.25,-86.25,-108.75,-93.75,-63.75,-61.25
1024,-101.25,-48.75,7.5,-71.25,-93.75,-116.25,-105,-75,-67.08333333333333
1025,-75,-33.75,11.25,-71.25,-93.75,-116.25,-105,-71.25,-61.666666666666664
1026,-56.25,-26.25,15,-67.5,-90,-112.5,-97.5,-67.5,-55.833333333333336
1027,-90,-60,7.5,-75,-97.5,-120,-108.75,-75,-68.75
1028,-97.5,-78.75,-7.5,-97.5,-120,-135,-127.5,-97.5,-84.58333333333333
1029,-93.75,-67.5,0,-97.5,-116.25,-135,-123.75,-93.75,-80.83333333333333
1030,-101.25,-56.25,7.5,-82.5,-105,-123.75,-112.5,-82.5,-72.91666666666667
1031,-97.5,-33.75,15,-71.25,-93.75,-112.5,-101.25,-75,-63.333333333333336
1032,-101.25,-22.5,22.5,-67.5,-90,-108.75,-97.5,-71.25,-59.583333333333336
1033,-90,-18.75,22.5,-63.75,-86.25,-108.75,-101.25,-71.25,-57.5
1034,-97.5,-37.5,18.75,-63.75,-90,-112.5,-101.25,-71.25,-61.666666666666664
1035,-135,-75,7.5,-71.25,-97.5,-123.75,-112.5,-82.5,-76.66666666666667
1036,-135,-75,7.5,-78.75,-101.25,-127.5,-116.25,-86.25,-79.16666666666667
1037,-120,-67.5,7.5,-82.5,-105,-127.5,-120,-86.25,-77.91666666666667
1038,-131.25,-78.75,3.75,-82.5,-105,-131.25,-120,-86.25,-81.25
1039,-131.25,-90,-3.75,-86.25,-112.5,-135,-123.75,-93.75,-86.25
1040,-138.75,-97.5,-11.25,-97.5,-120,-142.5,-131.25,-101.25,-93.33333333333333
1041,-146.25,-97.5,-7.5,-101.25,-116.25,-138.75,-127.5,-101.25,-92.91666666666667
1042,-127.5,-78.75,0,-86.25,-105,-127.5,-116.25,-90,-81.25
1043,-120,-52.5,11.25,-75,-93.75,-112.5,-105,-78.75,-69.58333333333333
1044,-82.5,-22.5,18.75,-63.75,-82.5,-105,-93.75,-67.5,-55.416666666666664
1045,-63.75,-11.25,18.75,-60,-78.75,-101.25,-90,-63.75,-50.0
1046,-75,-18.75,22.5,-52.5,-75,-97.5,-86.25,-60,-49.166666666666664
1047,-90,-45,11.25,-60,-82.5,-105,-93.75,-67.5,-59.166666666666664
1048,-116.25,-78.75,3.75,-67.5,-90,-112.5,-97.5,-71.25,-70.0
1049,-112.5,-75,3.75,-67.5,-90,-112.5,-101.25,-71.25,-69.58333333333333
1050,-101.25,-45,15,-56.25,-78.75,-101.25,-90,-63.75,-57.916666666666664
1051,-116.25,-56.25,11.25,-63.75,-82.5,-108.75,-93.75,-67.5,-64.16666666666667
1052,-123.75,-71.25,3.75,-75,-90,-112.5,-101.25,-75,-71.66666666666667
1053,-97.5,-60,7.5,-71.25,-86.25,-108.75,-97.5,-71.25,-65.0
1054,-86.25,-60,7.5,-71.25,-90,-108.75,-97.5,-71.25,-64.16666666666667
1055,-127.5,-71.25,-3.75,-78.75,-97.5,-120,-105,-82.5,-76.25
1056,-150,-78.75,-3.75,-75,-97.5,-120,-108.75,-82.5,-79.58333333333333
1057,-120,-60,-3.75,-71.25,-93.75,-116.25,-105,-78.75,-72.08333333333333
1058,-82.5,-26.25,7.5,-56.25,-78.75,-101.25,-90,-63.75,-54.583333333333336
1059,-71.25,-18.75,18.75,-45,-67.5,-90,-78.75,-52.5,-45.0
1060,-78.75,-30,11.25,-56.25,-75,-101.25,-90,-67.5,-54.166666666666664
1061,-82.5,-33.75,0,-63.75,-82.5,-108.75,-97.5,-71.25,-60.0
1062,-90,-41.25,-3.75,-71.25,-90,-112.5,-101.25,-75,-65.0
1063,-101.25,-63.75,0,-67.5,-86.25,-105,-93.75,-67.5,-65.0
1064,-116.25,-71.25,7.5,-63.75,-78.75,-101.25,-90,-63.75,-64.16666666666667
1065,-112.5,-45,11.25,-67.5,-82.5,-101.25,-90,-60,-60.833333333333336
1066,-86.25,-30,3.75,-67.5,-82.5,-108.75,-97.5,-63.75,-59.166666666666664
1067,-93.75,-48.75,0,-67.5,-86.25,-108.75,-97.5,-67.5,-63.333333333333336
1068,-112.5,-63.75,-3.75,-71.25,-86.25,-108.75,-97.5,-71.25,-68.33333333333333
1069,-105,-48.75,-3.75,-67.5,-90,-105,-93.75,-71.25,-65.0
1070,-63.75,-15,3.75,-52.5,-78.75,-93.75,-82.5,-60,-49.166666666666664
1071,-52.5,-7.5,3.75,-48.75,-71.25,-93.75,-82.5,-60,-45.833333333333336
1072,-82.5,-26.25,3.75,-56.25,-75,-93.75,-86.25,-60,-52.916666666666664
1073,-101.25,-33.75,3.75,-56.25,-75,-93.75,-82.5,-60,-55.416666666666664
1074,-108.75,-33.75,0,-60,-75,-93.75,-82.5,-60,-57.083333333333336
1075,-105,-41.25,0,-60,-75,-93.75,-82.5,-60,-57.5
1076,-101.25,-52.5,-3.75,-67.5,-86.25,-101.25,-90,-67.5,-63.333333333333336
1077,-90,-48.75,-7.5,-75,-90,-105,-90,-67.5,-63.75
1078,-93.75,-48.75,-7.5,-71.25,-86.25,-101.25,-90,-67.5,-62.916666666666664
1079,-120,-56.25,-3.75,-67.5,-82.5,-101.25,-90,-67.5,-65.41666666666667
1080,-127.5,-52.5,0,-67.5,-82.5,-97.5,-86.25,-63.75,-64.16666666666667
1081,-90,-18.75,3.75,-60,-75,-93.75,-86.25,-60,-53.333333333333336
1082,-60,3.75,15,-48.75,-63.75,-86.25,-71.25,-48.75,-40.0
1083,-67.5,-22.5,3.75,-56.25,-71.25,-93.75,-78.75,-56.25,-49.166666666666664
1084,-75,-41.25,-7.5,-67.5,-82.5,-105,-90,-63.75,-59.166666666666664
1085,-82.5,-37.5,-11.25,-71.25,-86.25,-105,-93.75,-71.25,-62.083333333333336
1086,-101.25,-48.75,-7.5,-71.25,-86.25,-101.25,-90,-67.5,-63.75
1087,-105,-63.75,-15,-82.5,-97.5,-112.5,-97.5,-75,-72.08333333333333
1088,-97.5,-60,-18.75,-90,-101.25,-116.25,-105,-78.75,-74.16666666666667
1089,-105,-63.75,-18.75,-90,-105,-112.5,-101.25,-75,-74.58333333333333
1090,-97.5,-56.25,-11.25,-86.25,-97.5,-108.75,-93.75,-67.5,-68.75
1091,-86.25,-33.75,-7.5,-78.75,-90,-105,-90,-63.75,-61.666666666666664
1092,-97.5,-33.75,-3.75,-82.5,-93.75,-108.75,-93.75,-67.5,-64.58333333333333
1093,-105,-41.25,-3.75,-78.75,-97.5,-112.5,-97.5,-67.5,-67.08333333333333
1094,-112.5,-45,-7.5,-71.25,-93.75,-108.75,-97.5,-67.5,-67.08333333333333
1095,-108.75,-63.75,-18.75,-82.5,-101.25,-116.25,-105,-75,-74.58333333333333
1096,-90,-63.75,-22.5,-90,-105,-120,-105,-75,-74.58333333333333
1097,-75,-30,-7.5,-75,-90,-105,-90,-60,-59.166666666666664
1098,-78.75,-33.75,-7.5,-71.25,-90,-101.25,-86.25,-56.25,-58.333333333333336
1099,-82.5,-60,-15,-86.25,-101.25,-108.75,-93.75,-67.5,-68.33333333333333
1100,-82.5,-52.5,-18.75,-90,-101.25,-108.75,-93.75,-63.75,-67.91666666666667
1101,-97.5,-48.75,-18.75,-93.75,-105,-108.75,-93.75,-63.75,-70.0
1102,-112.5,-60,-18.75,-97.5,-112.5,-112.5,-97.5,-67.5,-75.41666666666667
1103,-108.75,-60,-18.75,-93.75,-108.75,-112.5,-101.25,-67.5,-74.58333333333333
1104,-112.5,-56.25,-15,-90,-101.25,-108.75,-97.5,-67.5,-72.08333333333333
1105,-116.25,-48.75,-15,-86.25,-101.25,-108.75,-93.75,-67.5,-70.83333333333333
1106,-105,-37.5,-18.75,-82.5,-97.5,-108.75,-93.75,-63.75,-67.5
1107,-90,-33.75,-15,-82.5,-97.5,-105,-90,-60,-63.75
1108,-97.5,-52.5,-15,-90,-101.25,-108.75,-93.75,-60,-68.75
1109,-105,-71.25,-26.25,-101.25,-112.5,-120,-105,-71.25,-79.16666666666667
1110,-101.25,-63.75,-26.25,-101.25,-112.5,-120,-105,-71.25,-77.91666666666667
1111,-108.75,-71.25,-30,-105,-116.25,-123.75,-108.75,-75,-82.08333333333333
1112,-108.75,-78.75,-30,-112.5,-120,-127.5,-112.5,-78.75,-85.41666666666667
1113,-97.5,-60,-22.5,-105,-116.25,-123.75,-108.75,-78.75,-79.16666666666667
1114,-112.5,-67.5,-18.75,-108.75,-120,-127.5,-112.5,-78.75,-82.91666666666667
1115,-146.25,-97.5,-26.25,-116.25,-127.5,-135,-120,-86.25,-95.0
1116,-150,-105,-33.75,-123.75,-138.75,-142.5,-127.5,-93.75,-101.66666666666667
1117,-131.25,-93.75,-37.5,-123.75,-138.75,-146.25,-131.25,-93.75,-99.58333333333333
1118,-112.5,-71.25,-26.25,-105,-116.25,-127.5,-116.25,-78.75,-83.75
1119,-101.25,-41.25,-11.25,-90,-105,-112.5,-101.25,-60,-69.16666666666667
1120,-86.25,-26.25,-3.75,-82.5,-97.5,-112.5,-97.5,-56.25,-62.5
1121,-78.75,-30,-15,-97.5,-112.5,-127.5,-112.5,-71.25,-71.66666666666667
1122,-93.75,-41.25,-15,-101.25,-112.5,-123.75,-108.75,-67.5,-73.75
1123,-116.25,-56.25,-18.75,-105,-116.25,-123.75,-108.75,-71.25,-79.58333333333333
1124,-105,-56.25,-18.75,-108.75,-120,-123.75,-108.75,-75,-79.58333333333333
1125,-108.75,-71.25,-30,-120,-127.5,-127.5,-116.25,-86.25,-87.5
1126,-116.25,-82.5,-33.75,-123.75,-135,-135,-120,-90,-92.91666666666667
1127,-101.25,-63.75,-26.25,-120,-127.5,-131.25,-116.25,-82.5,-85.41666666666667
1128,-101.25,-52.5,-18.75,-108.75,-120,-123.75,-108.75,-78.75,-79.16666666666667
1129,-116.25,-63.75,-15,-101.25,-116.25,-120,-105,-71.25,-78.75
1130,-123.75,-71.25,-15,-97.5,-112.5,-116.25,-105,-67.5,-78.75
1131,-127.5,-75,-33.75,-116.25,-127.5,-138.75,-123.75,-86.25,-92.08333333333333
1132,-123.75,-78.75,-41.25,-127.5,-138.75,-146.25,-131.25,-97.5,-98.33333333333333
1133,-123.75,-78.75,-33.75,-120,-131.25,-138.75,-120,-86.25,-92.5
1134,-116.25,-75,-30,-116.25,-127.5,-135,-112.5,-78.75,-87.91666666666667
1135,-97.5,-71.25,-37.5,-123.75,-135,-146.25,-123.75,-90,-91.66666666666667
1136,-101.25,-75,-37.5,-131.25,-138.75,-146.25,-127.5,-93.75,-94.58333333333333
1137,-101.25,-63.75,-26.25,-123.75,-131.25,-131.25,-116.25,-82.5,-86.25
1138,-101.25,-60,-22.5,-120,-123.75,-127.5,-112.5,-78.75,-82.91666666666667
1139,-116.25,-75,-30,-127.5,-135,-135,-120,-86.25,-91.66666666666667
1140,-123.75,-75,-22.5,-120,-131.25,-135,-116.25,-82.5,-89.58333333333333
1141,-127.5,-71.25,-18.75,-112.5,-123.75,-127.5,-112.5,-75,-85.41666666666667
1142,-123.75,-63.75,-11.25,-105,-116.25,-123.75,-108.75,-71.25,-80.41666666666667
1143,-116.25,-63.75,-18.75,-108.75,-120,-131.25,-112.5,-75,-82.91666666666667
1144,-90,-60,-22.5,-116.25,-123.75,-135,-120,-82.5,-83.33333333333333
1145,-86.25,-63.75,-26.25,-120,-131.25,-135,-123.75,-86.25,-85.83333333333333
1146,-116.25,-86.25,-33.75,-123.75,-138.75,-142.5,-127.5,-90,-95.41666666666667
1147,-153.75,-105,-33.75,-123.75,-138.75,-142.5,-127.5,-90,-101.66666666666667
1148,-135,-97.5,-30,-127.5,-138.75,-138.75,-127.5,-90,-98.33333333333333
1149,-112.5,-82.5,-26.25,-127.5,-138.75,-135,-123.75,-86.25,-92.5
1150,-101.25,-60,-18.75,-116.25,-127.5,-127.5,-112.5,-78.75,-82.5
1151,-97.5,-48.75,-18.75,-116.25,-127.5,-127.5,-112.5,-78.75,-80.83333333333333
1152,-120,-60,-18.75,-116.25,-131.25,-131.25,-116.25,-78.75,-85.83333333333333
1153,-105,-45,-11.25,-105,-120,-120,-108.75,-75,-76.66666666666667
1154,-78.75,-41.25,-11.25,-101.25,-120,-120,-108.75,-71.25,-72.5
1155,-108.75,-82.5,-30,-120,-135,-138.75,-123.75,-90,-92.08333333333333
1156,-142.5,-116.25,-45,-135,-150,-153.75,-135,-101.25,-108.75
1157,-142.5,-108.75,-45,-135,-150,-153.75,-135,-101.25,-107.91666666666667
1158,-131.25,-93.75,-45,-135,-150,-153.75,-138.75,-101.25,-105.41666666666667
1159,-116.25,-82.5,-33.75,-127.5,-138.75,-138.75,-123.75,-90,-94.58333333333333
1160,-116.25,-82.5,-26.25,-123.75,-135,-135,-120,-86.25,-91.66666666666667
1161,-142.5,-105,-37.5,-135,-146.25,-146.25,-127.5,-93.75,-103.75
1162,-146.25,-108.75,-33.75,-135,-146.25,-146.25,-131.25,-97.5,-105.0
1163,-138.75,-93.75,-26.25,-127.5,-138.75,-142.5,-123.75,-93.75,-98.33333333333333
1164,-120,-67.5,-18.75,-116.25,-127.5,-131.25,-116.25,-82.5,-86.66666666666667
1165,-112.5,-52.5,-15,-112.5,-123.75,-131.25,-116.25,-82.5,-82.91666666666667
1166,-120,-60,-18.75,-112.5,-127.5,-135,-120,-86.25,-86.66666666666667
1167,-123.75,-82.5,-30,-120,-138.75,-142.5,-127.5,-93.75,-95.41666666666667
1168,-131.25,-105,-41.25,-131.25,-146.25,-150,-135,-101.25,-104.58333333333333
1169,-127.5,-93.75,-33.75,-127.5,-138.75,-142.5,-131.25,-93.75,-98.75
1170,-101.25,-60,-18.75,-116.25,-127.5,-131.25,-116.25,-78.75,-83.33333333333333
1171,-86.25,-41.25,-15,-112.5,-123.75,-123.75,-112.5,-75,-76.66666666666667
1172,-116.25,-71.25,-26.25,-123.75,-135,-135,-120,-86.25,-90.41666666666667
1173,-146.25,-97.5,-30,-131.25,-138.75,-138.75,-127.5,-93.75,-100.41666666666667
1174,-131.25,-78.75,-26.25,-127.5,-135,-135,-120,-90,-93.75
1175,-105,-56.25,-22.5,-123.75,-135,-135,-120,-90,-87.5
1176,-105,-60,-22.5,-127.5,-138.75,-138.75,-127.5,-93.75,-90.41666666666667
1177,-112.5,-48.75,-7.5,-112.5,-123.75,-127.5,-116.25,-82.5,-81.25
1178,-112.5,-33.75,0,-93.75,-108.75,-112.5,-101.25,-67.5,-70.0
1179,-97.5,-33.75,-3.75,-97.5,-112.5,-116.25,-101.25,-71.25,-70.41666666666667
1180,-86.25,-33.75,-3.75,-97.5,-112.5,-116.25,-101.25,-67.5,-68.75
1181,-105,-45,0,-97.5,-112.5,-116.25,-101.25,-67.5,-71.66666666666667
1182,-135,-63.75,-7.5,-105,-120,-127.5,-112.5,-78.75,-83.33333333333333
1183,-138.75,-60,0,-105,-120,-123.75,-108.75,-78.75,-81.66666666666667
1184,-120,-33.75,18.75,-93.75,-108.75,-112.5,-97.5,-67.5,-68.33333333333333
1185,-120,-26.25,30,-86.25,-101.25,-105,-90,-63.75,-62.5
1186,-127.5,-33.75,30,-86.25,-101.25,-105,-93.75,-63.75,-64.58333333333333
1187,-123.75,-37.5,30,-82.5,-101.25,-108.75,-93.75,-67.5,-65.0
1188,-123.75,-41.25,30,-78.75,-97.5,-108.75,-93.75,-67.5,-64.58333333333333
1189,-93.75,-18.75,37.5,-63.75,-86.25,-101.25,-86.25,-56.25,-52.083333333333336
1190,-63.75,-3.75,37.5,-60,-86.25,-101.25,-86.25,-52.5,-46.25
1191,-63.75,-11.25,33.75,-60,-90,-105,-86.25,-60,-49.166666666666664
1192,-71.25,-3.75,41.25,-56.25,-82.5,-93.75,-82.5,-56.25,-45.0
1193,-71.25,11.25,48.75,-52.5,-75,-86.25,-75,-52.5,-39.166666666666664
1194,-75,7.5,45,-52.5,-78.75,-86.25,-75,-52.5,-40.833333333333336
1195,-75,0,41.25,-52.5,-78.75,-90,-78.75,-52.5,-42.916666666666664
1196,-93.75,-18.75,41.25,-56.25,-82.5,-90,-78.75,-56.25,-48.333333333333336
1197,-127.5,-37.5,26.25,-75,-93.75,-101.25,-90,-63.75,-62.5
1198,-123.75,-18.75,22.5,-78.75,-93.75,-93.75,-82.5,-52.5,-57.916666666666664
1199,-86.25,22.5,30,-60,-75,-78.75,-63.75,-37.5,-38.75
1200,-52.5,52.5,33.75,-45,-56.25,-63.75,-45,-18.75,-21.666666666666668
1201,-37.5,52.5,11.25,-48.75,-60,-67.5,-48.75,-22.5,-24.583333333333332
1202,-52.5,26.25,-7.5,-63.75,-71.25,-78.75,-60,-30,-37.5
1203,-75,-15,-33.75,-82.5,-93.75,-97.5,-78.75,-45,-57.916666666666664
1204,-82.5,-41.25,-45,-93.75,-101.25,-105,-82.5,-48.75,-66.66666666666667
1205,-67.5,-26.25,-37.5,-86.25,-93.75,-97.5,-75,-41.25,-58.333333333333336
1206,-56.25,-7.5,-52.5,-101.25,-101.25,-105,-82.5,-48.75,-61.666666666666664
1207,-52.5,-11.25,-67.5,-116.25,-116.25,-116.25,-93.75,-56.25,-70.0
1208,-71.25,-37.5,-71.25,-127.5,-127.5,-123.75,-97.5,-60,-79.58333333333333
1209,-90,-56.25,-78.75,-142.5,-138.75,-131.25,-108.75,-71.25,-90.83333333333333
1210,-86.25,-41.25,-67.5,-138.75,-135,-127.5,-105,-67.5,-85.41666666666667
1211,-75,-15,-48.75,-123.75,-120,-116.25,-93.75,-56.25,-72.08333333333333
1212,-97.5,-22.5,-48.75,-123.75,-120,-116.25,-93.75,-60,-75.83333333333333
1213,-112.5,-37.5,-48.75,-123.75,-123.75,-120,-97.5,-63.75,-80.83333333333333
1214,-52.5,-3.75,-37.5,-108.75,-116.25,-116.25,-93.75,-56.25,-65.0
1215,-33.75,-18.75,-37.5,-116.25,-120,-123.75,-105,-67.5,-69.16666666666667
1216,-45,-41.25,-48.75,-123.75,-127.5,-131.25,-108.75,-75,-77.91666666666667
1217,-41.25,-22.5,-41.25,-116.25,-120,-120,-101.25,-63.75,-69.58333333333333
1218,-41.25,-15,-37.5,-112.5,-116.25,-116.25,-93.75,-56.25,-65.41666666666667
1219,-63.75,-33.75,-37.5,-120,-123.75,-120,-97.5,-63.75,-73.33333333333333
1220,-75,-45,-37.5,-123.75,-127.5,-131.25,-105,-71.25,-79.58333333333333
1221,-82.5,-56.25,-37.5,-131.25,-135,-138.75,-112.5,-78.75,-85.83333333333333
1222,-116.25,-78.75,-41.25,-138.75,-142.5,-146.25,-120,-82.5,-96.25
1223,-131.25,-78.75,-41.25,-138.75,-142.5,-146.25,-120,-90,-98.75
1224,-123.75,-63.75,-33.75,-135,-138.75,-146.25,-120,-86.25,-94.16666666666667
1225,-131.25,-67.5,-33.75,-135,-138.75,-142.5,-120,-86.25,-95.0
1226,-131.25,-78.75,-37.5,-131.25,-138.75,-146.25,-123.75,-90,-97.5
1227,-131.25,-93.75,-48.75,-142.5,-150,-161.25,-135,-101.25,-107.08333333333333
1228,-131.25,-97.5,-48.75,-150,-157.5,-165,-142.5,-108.75,-111.25
1229,-135,-86.25,-41.25,-146.25,-153.75,-161.25,-138.75,-101.25,-107.08333333333333
1230,-135,-75,-33.75,-138.75,-146.25,-153.75,-131.25,-93.75,-100.83333333333333
1231,-127.5,-71.25,-37.5,-138.75,-146.25,-153.75,-131.25,-97.5,-100.41666666666667
1232,-116.25,-71.25,-41.25,-146.25,-153.75,-157.5,-135,-101.25,-102.5
1233,-120,-90,-52.5,-161.25,-168.75,-168.75,-146.25,-116.25,-113.75
1234,-116.25,-90,-60,-168.75,-176.25,-176.25,-153.75,-123.75,-118.33333333333333
1235,-127.5,-86.25,-60,-168.75,-172.5,-176.25,-153.75,-123.75,-118.75
1236,-131.25,-86.25,-52.5,-157.5,-165,-168.75,-146.25,-112.5,-113.33333333333333
1237,-116.25,-78.75,-48.75,-150,-157.5,-165,-138.75,-108.75,-107.08333333333333
1238,-120,-90,-48.75,-150,-161.25,-165,-142.5,-108.75,-109.58333333333333
1239,-135,-97.5,-48.75,-150,-161.25,-168.75,-146.25,-108.75,-112.91666666666667
1240,-127.5,-86.25,-52.5,-153.75,-161.25,-168.75,-146.25,-112.5,-112.08333333333333
1241,-123.75,-75,-45,-150,-157.5,-165,-138.75,-105,-106.66666666666667
1242,-131.25,-75,-41.25,-146.25,-153.75,-161.25,-138.75,-105,-105.83333333333333
1243,-120,-75,-41.25,-150,-157.5,-165,-138.75,-105,-105.83333333333333
1244,-112.5,-78.75,-45,-157.5,-165,-168.75,-146.25,-112.5,-109.58333333333333
1245,-138.75,-93.75,-48.75,-161.25,-168.75,-172.5,-150,-116.25,-116.66666666666667
1246,-157.5,-101.25,-52.5,-165,-168.75,-176.25,-153.75,-123.75,-122.08333333333333
1247,-146.25,-90,-48.75,-161.25,-165,-180,-153.75,-120,-118.33333333333333
1248,-138.75,-86.25,-45,-157.5,-161.25,-176.25,-153.75,-116.25,-115.0
1249,-153.75,-101.25,-48.75,-157.5,-165,-176.25,-153.75,-120,-119.58333333333333
1250,-176.25,-120,-52.5,-157.5,-165,-176.25,-153.75,-123.75,-125.0
1251,-165,-123.75,-56.25,-161.25,-168.75,-180,-157.5,-127.5,-126.66666666666667
1252,-116.25,-93.75,-45,-146.25,-157.5,-172.5,-150,-123.75,-111.66666666666667
1253,-108.75,-93.75,-18.75,-120,-146.25,-168.75,-150,-127.5,-103.75
1254,-127.5,-123.75,15,-86.25,-138.75,-180,-172.5,-150,-107.08333333333333
1255,-135,-153.75,56.25,-52.5,-138.75,-202.5,-202.5,-183.75,-112.5
1256,-131.25,-180,101.25,-15,-138.75,-228.75,-236.25,-217.5,-116.25
1257,-108.75,-180,146.25,22.5,-135,-243.75,-258.75,-240,-110.83333333333333
1258,-105,-168.75,187.5,67.5,-116.25,-240,-255,-240,-96.66666666666667
1259,-101.25,-135,225,127.5,-71.25,-210,-236.25,-225,-69.58333333333333
1260,-78.75,-82.5,258.75,206.25,-11.25,-161.25,-195,-191.25,-28.333333333333332
1261,-60,-30,292.5,285,60,-105,-146.25,-142.5,17.083333333333332
1262,-18.75,15,315,348.75,123.75,-45,-90,-93.75,61.666666666666664
1263,56.25,67.5,318.75,393.75,180,15,-30,-37.5,107.08333333333333
1264,146.25,138.75,315,427.5,228.75,75,33.75,26.25,154.58333333333334
1265,236.25,225,311.25,483.75,311.25,168.75,127.5,116.25,220.0
1266,326.25,330,285,528.75,393.75,277.5,240,228.75,290.0
1267,405,465,262.5,555,483.75,401.25,371.25,356.25,366.6666666666667
1268,465,585,210,547.5,558.75,517.5,502.5,476.25,429.1666666666667
1269,521.25,705,153.75,551.25,648.75,652.5,645,615,499.1666666666667
1270,566.25,870,153.75,626.25,791.25,828.75,825,780,604.5833333333334
1271,603.75,1057.5,123.75,656.25,911.25,1005,1020,971.25,705.4166666666666
1272,641.25,1271.25,3.75,588.75,978.75,1162.5,1215,1181.25,782.5
1273,682.5,1447.5,-123.75,495,1027.5,1297.5,1387.5,1361.25,841.6666666666666
1274,735,1500,-243.75,348.75,1027.5,1383.75,1500,1481.25,859.1666666666666
1275,761.25,1522.5,-360,187.5,1008.75,1455,1601.25,1571.25,860.8333333333334
1276,701.25,1507.5,-393.75,135,1053.75,1545,1687.5,1631.25,874.1666666666666
1277,596.25,1417.5,-367.5,142.5,1117.5,1616.25,1728.75,1635,876.25
1278,510,1342.5,-375,93.75,1136.25,1646.25,1736.25,1612.5,855.8333333333334
1279,420,1267.5,-412.5,-11.25,1095,1608.75,1683.75,1548.75,800.0
1280,318.75,1125,-446.25,-150,960,1447.5,1515,1387.5,684.1666666666666
1281,195,945,-412.5,-236.25,795,1215,1275,1170,549.5833333333334
1282,52.5,768.75,-363.75,-311.25,596.25,948.75,1008.75,941.25,404.5833333333333
1283,-75,585,-386.25,-461.25,311.25,618.75,712.5,708.75,223.75
1284,-161.25,427.5,-412.5,-618.75,33.75,311.25,435,491.25,56.25
1285,-232.5,318.75,-397.5,-697.5,-142.5,101.25,236.25,322.5,-54.583333333333336
1286,-292.5,202.5,-367.5,-686.25,-210,-11.25,101.25,183.75,-120.0
1287,-333.75,60,-375,-667.5,-243.75,-90,-11.25,48.75,-179.16666666666666
1288,-356.25,-22.5,-393.75,-641.25,-251.25,-120,-67.5,-18.75,-207.91666666666666
1289,-322.5,-7.5,-371.25,-570,-206.25,-90,-45,-11.25,-180.41666666666666
1290,-236.25,33.75,-341.25,-498.75,-176.25,-67.5,-22.5,11.25,-144.16666666666666
1291,-202.5,18.75,-322.5,-465,-191.25,-90,-37.5,0,-143.33333333333334
1292,-217.5,-33.75,-307.5,-438.75,-210,-123.75,-63.75,-26.25,-157.91666666666666
1293,-187.5,-30,-270,-382.5,-191.25,-116.25,-63.75,-30,-141.25
1294,-138.75,18.75,-228.75,-307.5,-142.5,-82.5,-37.5,-7.5,-102.91666666666667
1295,-105,52.5,-195,-240,-93.75,-52.5,-15,15,-70.41666666666667
1296,-101.25,48.75,-157.5,-176.25,-52.5,-26.25,3.75,22.5,-48.75
1297,-101.25,48.75,-112.5,-116.25,-15,0,18.75,33.75,-27.083333333333332
1298,-78.75,56.25,-78.75,-82.5,3.75,3.75,22.5,33.75,-13.333333333333334
1299,-63.75,52.5,-60,-71.25,3.75,-3.75,11.25,22.5,-12.083333333333334
1300,-60,41.25,-52.5,-67.5,0,-15,-3.75,7.5,-16.666666666666668
1301,-63.75,22.5,-48.75,-63.75,-11.25,-26.25,-15,-3.75,-23.333333333333332
1302,-86.25,-7.5,-48.75,-67.5,-22.5,-37.5,-26.25,-15,-34.583333333333336
1303,-105,-22.5,-41.25,-75,-33.75,-48.75,-37.5,-26.25,-43.333333333333336
1304,-105,-22.5,-33.75,-75,-33.75,-52.5,-41.25,-33.75,-44.166666666666664
1305,-82.5,-15,-30,-78.75,-41.25,-60,-48.75,-41.25,-44.166666666666664
1306,-67.5,-7.5,-26.25,-75,-45,-67.5,-56.25,-41.25,-42.916666666666664
1307,-82.5,-7.5,-18.75,-67.5,-41.25,-63.75,-52.5,-37.5,-41.25
1308,-112.5,-22.5,-18.75,-67.5,-45,-71.25,-60,-45,-49.166666666666664
1309,-93.75,-11.25,-18.75,-63.75,-48.75,-71.25,-63.75,-45,-46.25
1310,-48.75,11.25,-15,-56.25,-45,-71.25,-63.75,-45,-37.083333333333336
1311,-56.25,-7.5,-26.25,-67.5,-56.25,-86.25,-75,-56.25,-47.916666666666664
1312,-86.25,-37.5,-26.25,-71.25,-63.75,-93.75,-82.5,-63.75,-58.333333333333336
1313,-90,-37.5,-18.75,-67.5,-63.75,-90,-75,-56.25,-55.416666666666664
1314,-86.25,-26.25,-15,-60,-56.25,-82.5,-71.25,-52.5,-50.0
1315,-93.75,-37.5,-22.5,-67.5,-63.75,-93.75,-82.5,-60,-57.916666666666664
1316,-108.75,-71.25,-30,-75,-71.25,-101.25,-90,-67.5,-68.33333333333333
1317,-105,-82.5,-30,-82.5,-78.75,-105,-90,-71.25,-71.66666666666667
1318,-82.5,-60,-26.25,-78.75,-75,-97.5,-86.25,-71.25,-64.16666666666667
1319,-86.25,-52.5,-22.5,-75,-71.25,-93.75,-82.5,-67.5,-61.25
1320,-71.25,-33.75,-18.75,-71.25,-67.5,-90,-78.75,-67.5,-55.416666666666664
1321,-37.5,7.5,0,-52.5,-52.5,-75,-63.75,-48.75,-35.833333333333336
1322,-7.5,30,11.25,-33.75,-37.5,-63.75,-52.5,-37.5,-21.25
1323,-22.5,11.25,3.75,-37.5,-41.25,-71.25,-60,-45,-29.166666666666668
1324,-48.75,-15,-15,-52.5,-56.25,-82.5,-71.25,-60,-44.583333333333336
1325,-60,-30,-18.75,-56.25,-60,-86.25,-75,-60,-49.583333333333336
1326,-71.25,-45,-26.25,-60,-63.75,-90,-75,-60,-54.583333333333336
1327,-63.75,-37.5,-30,-63.75,-67.5,-93.75,-78.75,-63.75,-55.416666666666664
1328,-52.5,-22.5,-33.75,-71.25,-71.25,-93.75,-82.5,-67.5,-55.0
1329,-56.25,-15,-26.25,-63.75,-63.75,-86.25,-75,-60,-49.583333333333336
1330,-71.25,-18.75,-11.25,-48.75,-52.5,-75,-63.75,-48.75,-43.333333333333336
1331,-67.5,-15,-11.25,-48.75,-48.75,-75,-63.75,-48.75,-42.083333333333336
1332,-56.25,-3.75,-11.25,-45,-45,-71.25,-60,-45,-37.5
1333,-45,0,-7.5,-33.75,-37.5,-63.75,-48.75,-37.5,-30.416666666666668
1334,-30,7.5,-3.75,-26.25,-30,-60,-48.75,-30,-24.583333333333332
1335,-26.25,11.25,-11.25,-26.25,-30,-63.75,-48.75,-30,-25.0
1336,-30,3.75,-18.75,-33.75,-37.5,-63.75,-48.75,-33.75,-29.166666666666668
1337,-26.25,3.75,-22.5,-33.75,-37.5,-67.5,-52.5,-37.5,-30.416666666666668
1338,-11.25,26.25,-18.75,-26.25,-33.75,-63.75,-48.75,-30,-22.916666666666668
1339,18.75,52.5,-7.5,-15,-18.75,-48.75,-33.75,-15,-7.5
1340,18.75,48.75,-7.5,-18.75,-18.75,-48.75,-33.75,-15,-8.333333333333334
1341,-26.25,0,-26.25,-41.25,-37.5,-67.5,-52.5,-33.75,-31.666666666666668
1342,-71.25,-45,-30,-41.25,-41.25,-71.25,-52.5,-41.25,-43.75
1343,-56.25,-26.25,-26.25,-30,-37.5,-63.75,-48.75,-33.75,-35.833333333333336
1344,-37.5,-3.75,-18.75,-22.5,-26.25,-52.5,-37.5,-26.25,-25.0
1345,-45,7.5,-7.5,-11.25,-18.75,-45,-33.75,-18.75,-19.166666666666668
1346,-33.75,22.5,-11.25,-7.5,-15,-45,-30,-15,-15.0
1347,-45,-3.75,-22.5,-15,-22.5,-52.5,-37.5,-26.25,-25.0
1348,-37.5,-11.25,-26.25,-18.75,-26.25,-52.5,-37.5,-26.25,-26.25
1349,-15,3.75,-26.25,-18.75,-22.5,-48.75,-33.75,-22.5,-20.416666666666668
1350,3.75,15,-26.25,-15,-22.5,-48.75,-33.75,-22.5,-16.666666666666668
1351,18.75,33.75,-18.75,-7.5,-15,-41.25,-26.25,-15,-7.916666666666667
1352,15,41.25,-11.25,0,0,-33.75,-18.75,-7.5,-1.6666666666666667
1353,-3.75,26.25,-15,-3.75,-7.5,-37.5,-26.25,-7.5,-8.333333333333334
1354,-11.25,15,-22.5,-15,-18.75,-45,-33.75,-15,-16.25
1355,-3.75,18.75,-22.5,-11.25,-15,-41.25,-26.25,-18.75,-13.333333333333334
1356,-15,15,-22.5,-7.5,-11.25,-33.75,-22.5,-15,-12.5
1357,-18.75,22.5,-26.25,0,-7.5,-30,-18.75,-11.25,-10.0
1358,18.75,60,-11.25,22.5,15,-11.25,3.75,11.25,12.083333333333334
1359,45,71.25,-15,18.75,11.25,-11.25,3.75,7.5,14.583333333333334
1360,26.25,41.25,-26.25,7.5,3.75,-22.5,-7.5,0,2.5
1361,7.5,18.75,-37.5,0,-3.75,-26.25,-11.25,0,-5.833333333333333
1362,18.75,26.25,-30,7.5,7.5,-18.75,-3.75,7.5,1.6666666666666667
1363,26.25,26.25,-37.5,3.75,0,-22.5,-7.5,3.75,-0.8333333333333334
1364,22.5,18.75,-45,-3.75,-7.5,-26.25,-7.5,0,-5.416666666666667
1365,52.5,48.75,-33.75,11.25,7.5,-11.25,7.5,11.25,10.416666666666666
1366,78.75,86.25,-18.75,22.5,22.5,3.75,18.75,26.25,26.666666666666668
1367,60,82.5,-22.5,26.25,22.5,3.75,22.5,26.25,24.583333333333332
1368,48.75,63.75,-30,22.5,18.75,0,15,22.5,17.916666666666668
1369,63.75,75,-30,26.25,22.5,3.75,22.5,26.25,23.333333333333332
1370,56.25,78.75,-22.5,41.25,33.75,11.25,30,37.5,29.583333333333332
1371,48.75,63.75,-33.75,33.75,30,3.75,22.5,30,22.083333333333332
1372,75,63.75,-48.75,22.5,18.75,-3.75,15,22.5,18.333333333333332
1373,78.75,75,-41.25,30,26.25,11.25,26.25,37.5,27.083333333333332
1374,75,97.5,-30,45,41.25,22.5,41.25,52.5,38.333333333333336
1375,97.5,105,-30,41.25,41.25,22.5,41.25,48.75,40.833333333333336
1376,101.25,93.75,-45,26.25,26.25,7.5,30,37.5,30.833333333333332
1377,97.5,86.25,-48.75,22.5,22.5,3.75,26.25,33.75,27.083333333333332
1378,86.25,78.75,-48.75,26.25,22.5,7.5,26.25,37.5,26.25
1379,75,78.75,-48.75,26.25,22.5,7.5,30,41.25,25.833333333333332
1380,86.25,97.5,-45,33.75,30,15,37.5,48.75,33.75
1381,93.75,116.25,-30,52.5,45,30,52.5,63.75,47.083333333333336
1382,97.5,123.75,-33.75,52.5,45,26.25,48.75,63.75,47.083333333333336
1383,108.75,116.25,-41.25,48.75,41.25,18.75,45,63.75,44.583333333333336
1384,112.5,105,-48.75,41.25,33.75,15,41.25,60,40.0
1385,135,116.25,-48.75,41.25,33.75,18.75,48.75,63.75,45.416666666666664
1386,150,123.75,-52.5,37.5,33.75,18.75,48.75,67.5,47.5
1387,120,105,-52.5,37.5,30,18.75,45,67.5,41.25
1388,112.5,105,-52.5,37.5,30,18.75,52.5,67.5,41.25
1389,138.75,116.25,-52.5,33.75,30,18.75,52.5,71.25,45.416666666666664
1390,146.25,131.25,-48.75,33.75,26.25,18.75,48.75,71.25,47.5
1391,146.25,150,-45,41.25,33.75,22.5,56.25,75,53.333333333333336
1392,161.25,157.5,-45,41.25,30,18.75,56.25,75,55.0
1393,161.25,157.5,-48.75,41.25,26.25,18.75,56.25,78.75,54.583333333333336
1394,146.25,135,-52.5,41.25,30,18.75,52.5,78.75,50.0
1395,146.25,120,-63.75,37.5,26.25,11.25,48.75,75,44.583333333333336
1396,150,123.75,-60,37.5,26.25,15,56.25,78.75,47.5
1397,146.25,131.25,-52.5,41.25,30,18.75,63.75,90,52.083333333333336
1398,135,127.5,-56.25,33.75,22.5,15,56.25,82.5,46.25
1399,105,90,-67.5,18.75,3.75,-7.5,33.75,67.5,27.083333333333332
1400,105,86.25,-67.5,15,0,-11.25,33.75,67.5,25.416666666666668
1401,131.25,120,-60,18.75,3.75,-3.75,41.25,71.25,35.833333333333336
1402,146.25,138.75,-56.25,22.5,7.5,3.75,45,75,42.5
1403,150,142.5,-48.75,26.25,11.25,11.25,52.5,78.75,47.083333333333336
1404,157.5,146.25,-48.75,26.25,7.5,7.5,52.5,78.75,47.5
1405,153.75,142.5,-48.75,26.25,7.5,3.75,48.75,78.75,45.833333333333336
1406,153.75,146.25,-41.25,37.5,15,7.5,52.5,82.5,50.416666666666664
1407,157.5,157.5,-37.5,41.25,15,7.5,52.5,86.25,53.333333333333336
1408,161.25,153.75,-37.5,33.75,11.25,0,45,82.5,50.0
1409,161.25,135,-45,26.25,3.75,-11.25,33.75,71.25,41.666666666666664
1410,150,123.75,-48.75,22.5,-7.5,-18.75,26.25,63.75,34.583333333333336
1411,112.5,108.75,-45,15,-11.25,-22.5,22.5,56.25,26.25
1412,86.25,93.75,-45,11.25,-18.75,-30,15,48.75,17.916666666666668
1413,101.25,105,-37.5,11.25,-18.75,-26.25,18.75,52.5,22.916666666666668
1414,116.25,120,-33.75,18.75,-15,-26.25,18.75,52.5,27.916666666666668
1415,123.75,135,-26.25,22.5,-11.25,-26.25,18.75,48.75,31.666666666666668
1416,120,138.75,-15,30,-3.75,-18.75,22.5,56.25,36.666666666666664
1417,97.5,112.5,-7.5,33.75,0,-22.5,22.5,56.25,32.5
1418,90,97.5,0,41.25,-3.75,-26.25,15,45,28.75
1419,97.5,120,-7.5,33.75,-11.25,-37.5,3.75,33.75,25.833333333333332
1420,86.25,120,-7.5,26.25,-18.75,-45,-3.75,26.25,20.416666666666668
1421,75,105,0,26.25,-15,-45,-3.75,26.25,18.75
1422,63.75,97.5,0,22.5,-22.5,-48.75,-11.25,18.75,13.333333333333334
1423,41.25,67.5,-3.75,15,-33.75,-60,-18.75,7.5,1.6666666666666667
1424,18.75,30,-15,-3.75,-48.75,-78.75,-41.25,-11.25,-16.666666666666668
1425,3.75,11.25,-18.75,-18.75,-63.75,-90,-56.25,-26.25,-28.75
1426,-22.5,0,-15,-18.75,-63.75,-93.75,-60,-33.75,-34.166666666666664
1427,-15,26.25,0,-3.75,-52.5,-82.5,-48.75,-22.5,-22.083333333333332
1428,26.25,67.5,15,7.5,-37.5,-71.25,-37.5,-11.25,-4.583333333333333
1429,37.5,71.25,18.75,11.25,-33.75,-67.5,-33.75,-7.5,-0.4166666666666667
1430,22.5,71.25,22.5,15,-33.75,-67.5,-37.5,-11.25,-2.0833333333333335
1431,15,67.5,22.5,11.25,-37.5,-75,-45,-18.75,-6.666666666666667
1432,33.75,67.5,18.75,3.75,-41.25,-78.75,-48.75,-26.25,-7.916666666666667
1433,33.75,60,11.25,-7.5,-48.75,-86.25,-56.25,-30,-13.75
1434,-22.5,15,3.75,-18.75,-56.25,-93.75,-63.75,-37.5,-30.416666666666668
1435,-52.5,-15,0,-26.25,-63.75,-101.25,-71.25,-45,-41.666666666666664
1436,-41.25,-11.25,-3.75,-37.5,-75,-108.75,-82.5,-56.25,-46.25
1437,-45,-3.75,3.75,-41.25,-78.75,-108.75,-82.5,-60,-46.25
1438,-71.25,-7.5,7.5,-41.25,-75,-108.75,-82.5,-60,-48.75
1439,-86.25,-7.5,15,-37.5,-71.25,-108.75,-82.5,-60,-48.75
1440,-60,11.25,22.5,-33.75,-67.5,-105,-78.75,-60,-41.25
1441,-67.5,-3.75,18.75,-37.5,-75,-108.75,-86.25,-63.75,-47.083333333333336
1442,-90,-22.5,15,-37.5,-75,-116.25,-90,-67.5,-53.75
1443,-75,-15,11.25,-41.25,-82.5,-120,-93.75,-71.25,-54.166666666666664
1444,-56.25,-11.25,7.5,-48.75,-86.25,-120,-93.75,-71.25,-53.333333333333336
1445,-63.75,-22.5,0,-56.25,-90,-123.75,-97.5,-75,-58.75
1446,-67.5,-22.5,3.75,-56.25,-90,-120,-97.5,-71.25,-57.916666666666664
1447,-75,-30,0,-67.5,-101.25,-131.25,-105,-78.75,-65.41666666666667
1448,-90,-45,-3.75,-75,-108.75,-138.75,-108.75,-86.25,-72.91666666666667
1449,-75,-22.5,0,-71.25,-101.25,-131.25,-101.25,-82.5,-65.0
1450,-86.25,-22.5,3.75,-71.25,-101.25,-131.25,-105,-82.5,-66.25
1451,-105,-30,7.5,-75,-101.25,-131.25,-105,-86.25,-69.58333333333333
1452,-105,-26.25,7.5,-75,-105,-135,-108.75,-93.75,-71.25
1453,-112.5,-22.5,11.25,-67.5,-97.5,-127.5,-105,-86.25,-67.5
1454,-116.25,-30,15,-63.75,-97.5,-131.25,-105,-82.5,-67.91666666666667
1455,-116.25,-56.25,0,-78.75,-108.75,-146.25,-120,-93.75,-80.0
1456,-123.75,-67.5,-7.5,-93.75,-116.25,-150,-127.5,-101.25,-87.5
1457,-120,-52.5,-7.5,-93.75,-120,-150,-123.75,-97.5,-85.0
1458,-116.25,-45,-3.75,-90,-112.5,-146.25,-116.25,-93.75,-80.41666666666667
1459,-120,-48.75,-7.5,-90,-116.25,-150,-123.75,-101.25,-84.16666666666667
1460,-135,-60,-15,-105,-127.5,-157.5,-135,-112.5,-94.16666666666667
1461,-146.25,-86.25,-26.25,-120,-138.75,-168.75,-146.25,-123.75,-106.25
1462,-146.25,-93.75,-30,-123.75,-142.5,-172.5,-150,-123.75,-109.16666666666667
1463,-138.75,-71.25,-15,-112.5,-135,-165,-142.5,-112.5,-99.16666666666667
1464,-135,-48.75,-7.5,-101.25,-127.5,-161.25,-135,-105,-91.25
1465,-108.75,-30,-7.5,-97.5,-123.75,-157.5,-131.25,-105,-84.58333333333333
1466,-116.25,-37.5,-11.25,-97.5,-127.5,-157.5,-131.25,-105,-87.08333333333333
1467,-123.75,-48.75,-15,-97.5,-127.5,-153.75,-127.5,-105,-88.75
1468,-112.5,-48.75,-18.75,-101.25,-123.75,-153.75,-127.5,-105,-87.91666666666667
1469,-112.5,-41.25,-15,-101.25,-123.75,-150,-127.5,-105,-86.25
1470,-138.75,-56.25,-11.25,-97.5,-120,-150,-127.5,-101.25,-89.16666666666667
1471,-157.5,-67.5,-11.25,-97.5,-120,-150,-123.75,-101.25,-92.08333333333333
1472,-135,-52.5,-11.25,-105,-123.75,-153.75,-127.5,-101.25,-90.0
1473,-101.25,-37.5,-11.25,-105,-127.5,-153.75,-123.75,-101.25,-84.58333333333333
1474,-93.75,-45,-18.75,-105,-127.5,-153.75,-127.5,-105,-86.25
1475,-123.75,-71.25,-18.75,-105,-127.5,-150,-127.5,-105,-92.08333333333333
1476,-138.75,-78.75,-15,-105,-123.75,-150,-123.75,-105,-93.33333333333333
1477,-138.75,-60,-7.5,-93.75,-116.25,-146.25,-120,-97.5,-86.66666666666667
1478,-120,-41.25,-3.75,-82.5,-108.75,-135,-112.5,-90,-77.08333333333333
1479,-108.75,-48.75,-7.5,-86.25,-112.5,-142.5,-116.25,-93.75,-79.58333333333333
1480,-138.75,-75,-11.25,-93.75,-116.25,-142.5,-120,-93.75,-87.91666666666667
1481,-146.25,-75,-7.5,-90,-112.5,-138.75,-112.5,-90,-85.83333333333333
1482,-120,-52.5,-7.5,-90,-108.75,-138.75,-112.5,-90,-80.0
1483,-101.25,-45,-11.25,-90,-108.75,-138.75,-112.5,-90,-77.5
1484,-97.5,-48.75,-11.25,-90,-112.5,-135,-112.5,-90,-77.5
1485,-116.25,-52.5,-7.5,-93.75,-112.5,-135,-116.25,-93.75,-80.83333333333333
1486,-123.75,-60,-18.75,-108.75,-123.75,-150,-127.5,-105,-90.83333333333333
1487,-120,-56.25,-18.75,-105,-123.75,-150,-127.5,-108.75,-90.0
1488,-120,-45,-3.75,-90,-108.75,-138.75,-116.25,-97.5,-80.0
1489,-120,-33.75,0,-78.75,-101.25,-127.5,-108.75,-86.25,-72.91666666666667
1490,-93.75,-7.5,11.25,-63.75,-82.5,-116.25,-93.75,-75,-57.916666666666664
1491,-56.25,11.25,11.25,-60,-82.5,-116.25,-93.75,-75,-51.25
1492,-67.5,-15,-3.75,-75,-97.5,-131.25,-108.75,-90,-65.41666666666667
1493,-112.5,-52.5,-15,-90,-108.75,-142.5,-120,-101.25,-82.5
1494,-135,-60,-11.25,-90,-105,-138.75,-120,-97.5,-84.16666666666667
1495,-135,-56.25,-11.25,-86.25,-105,-135,-112.5,-93.75,-81.66666666666667
1496,-135,-60,-11.25,-93.75,-105,-138.75,-116.25,-97.5,-84.16666666666667
1497,-120,-52.5,-11.25,-93.75,-108.75,-138.75,-116.25,-97.5,-82.08333333333333
1498,-120,-48.75,-11.25,-93.75,-105,-131.25,-108.75,-93.75,-79.16666666666667
1499,-127.5,-48.75,-11.25,-93.75,-105,-135,-108.75,-93.75,-80.41666666666667
1500,-120,-37.5,-3.75,-86.25,-97.5,-127.5,-105,-86.25,-73.75
1501,-108.75,-30,-7.5,-86.25,-97.5,-127.5,-105,-86.25,-72.08333333333333
1502,-101.25,-22.5,-3.75,-78.75,-93.75,-123.75,-105,-82.5,-67.91666666666667
1503,-101.25,-33.75,-11.25,-82.5,-101.25,-135,-112.5,-90,-74.16666666666667
1504,-116.25,-48.75,-18.75,-90,-105,-138.75,-116.25,-97.5,-81.25
1505,-123.75,-52.5,-22.5,-93.75,-105,-138.75,-116.25,-93.75,-82.91666666666667
1506,-116.25,-52.5,-22.5,-93.75,-105,-138.75,-112.5,-93.75,-81.66666666666667
1507,-120,-48.75,-18.75,-90,-105,-135,-108.75,-90,-79.58333333333333
1508,-112.5,-45,-22.5,-93.75,-105,-135,-112.5,-93.75,-80.0
1509,-93.75,-30,-18.75,-93.75,-105,-131.25,-108.75,-90,-74.58333333333333
1510,-90,-26.25,-11.25,-93.75,-101.25,-127.5,-105,-86.25,-71.25
1511,-105,-41.25,-7.5,-90,-97.5,-127.5,-101.25,-86.25,-72.91666666666667
1512,-101.25,-26.25,-7.5,-90,-101.25,-127.5,-105,-86.25,-71.66666666666667
1513,-86.25,0,-18.75,-93.75,-105,-135,-112.5,-93.75,-71.66666666666667
1514,-82.5,-3.75,-18.75,-90,-101.25,-135,-108.75,-93.75,-70.41666666666667
1515,-105,-22.5,-15,-86.25,-97.5,-131.25,-105,-86.25,-72.08333333333333
1516,-108.75,-33.75,-26.25,-93.75,-105,-138.75,-116.25,-93.75,-79.58333333333333
1517,-93.75,-37.5,-30,-101.25,-108.75,-142.5,-120,-93.75,-80.83333333333333
1518,-101.25,-33.75,-22.5,-93.75,-105,-142.5,-116.25,-90,-78.33333333333333
1519,-105,-30,-26.25,-93.75,-108.75,-138.75,-112.5,-90,-78.33333333333333
1520,-101.25,-37.5,-30,-105,-116.25,-138.75,-116.25,-93.75,-82.08333333333333
1521,-105,-41.25,-26.25,-105,-116.25,-135,-108.75,-93.75,-81.25
1522,-97.5,-26.25,-22.5,-101.25,-108.75,-131.25,-105,-93.75,-76.25
1523,-97.5,-11.25,-18.75,-97.5,-105,-127.5,-105,-90,-72.5
1524,-105,-22.5,-18.75,-101.25,-108.75,-138.75,-112.5,-93.75,-77.91666666666667
1525,-101.25,-30,-26.25,-101.25,-116.25,-142.5,-116.25,-97.5,-81.25
1526,-97.5,-22.5,-22.5,-93.75,-108.75,-138.75,-112.5,-90,-76.25
1527,-108.75,-37.5,-26.25,-97.5,-112.5,-142.5,-116.25,-93.75,-81.66666666666667
1528,-127.5,-56.25,-33.75,-108.75,-120,-150,-120,-101.25,-90.83333333333333
1529,-135,-56.25,-26.25,-105,-116.25,-138.75,-112.5,-90,-86.66666666666667
1530,-116.25,-52.5,-30,-108.75,-116.25,-142.5,-116.25,-93.75,-86.25
1531,-97.5,-45,-41.25,-116.25,-123.75,-153.75,-120,-101.25,-88.75
1532,-101.25,-41.25,-41.25,-120,-123.75,-150,-120,-101.25,-88.75
1533,-112.5,-52.5,-45,-123.75,-131.25,-153.75,-127.5,-105,-94.58333333333333
1534,-116.25,-52.5,-41.25,-123.75,-127.5,-150,-120,-101.25,-92.5
1535,-127.5,-45,-33.75,-116.25,-123.75,-146.25,-112.5,-93.75,-88.75
1536,-120,-33.75,-30,-112.5,-120,-142.5,-108.75,-90,-84.16666666666667
1537,-101.25,-26.25,-26.25,-105,-112.5,-138.75,-108.75,-86.25,-78.33333333333333
1538,-86.25,-22.5,-30,-108.75,-116.25,-146.25,-116.25,-90,-79.58333333333333
1539,-82.5,-30,-33.75,-112.5,-120,-150,-116.25,-90,-81.66666666666667
1540,-101.25,-45,-37.5,-120,-127.5,-157.5,-120,-97.5,-89.58333333333333
1541,-90,-26.25,-33.75,-116.25,-127.5,-153.75,-116.25,-93.75,-84.16666666666667
1542,-90,-26.25,-30,-112.5,-123.75,-150,-116.25,-93.75,-82.5
1543,-108.75,-48.75,-37.5,-120,-131.25,-157.5,-127.5,-101.25,-92.5
1544,-108.75,-52.5,-45,-131.25,-138.75,-165,-131.25,-108.75,-97.91666666666667
1545,-112.5,-52.5,-45,-135,-138.75,-165,-131.25,-108.75,-98.75
1546,-108.75,-52.5,-41.25,-131.25,-138.75,-161.25,-131.25,-108.75,-97.08333333333333
1547,-105,-52.5,-41.25,-135,-142.5,-165,-135,-108.75,-98.33333333333333
1548,-120,-56.25,-45,-135,-142.5,-168.75,-135,-112.5,-101.66666666666667
1549,-116.25,-48.75,-37.5,-127.5,-135,-161.25,-127.5,-101.25,-95.0
1550,-108.75,-41.25,-33.75,-120,-131.25,-157.5,-123.75,-97.5,-90.41666666666667
1551,-116.25,-52.5,-41.25,-123.75,-138.75,-165,-131.25,-105,-97.08333333333333
1552,-116.25,-60,-41.25,-127.5,-138.75,-168.75,-131.25,-108.75,-99.16666666666667
1553,-123.75,-56.25,-37.5,-123.75,-138.75,-161.25,-127.5,-105,-97.08333333333333
1554,-123.75,-52.5,-45,-131.25,-142.5,-165,-135,-108.75,-100.41666666666667
1555,-123.75,-63.75,-52.5,-138.75,-150,-172.5,-138.75,-112.5,-105.83333333333333
1556,-123.75,-75,-52.5,-146.25,-157.5,-180,-142.5,-120,-110.83333333333333
1557,-116.25,-63.75,-45,-142.5,-153.75,-180,-142.5,-120,-107.08333333333333
1558,-90,-33.75,-41.25,-135,-150,-172.5,-135,-112.5,-96.66666666666667
1559,-90,-30,-41.25,-135,-150,-172.5,-135,-112.5,-96.25
1560,-97.5,-33.75,-41.25,-135,-146.25,-168.75,-135,-112.5,-96.66666666666667
1561,-97.5,-30,-37.5,-127.5,-142.5,-165,-131.25,-105,-92.91666666666667
1562,-90,-22.5,-33.75,-120,-138.75,-161.25,-123.75,-101.25,-87.91666666666667
1563,-78.75,-26.25,-41.25,-127.5,-146.25,-172.5,-135,-112.5,-93.33333333333333
1564,-101.25,-56.25,-52.5,-142.5,-157.5,-180,-142.5,-120,-105.83333333333333
1565,-135,-82.5,-52.5,-142.5,-157.5,-180,-142.5,-120,-112.5
1566,-142.5,-90,-56.25,-146.25,-161.25,-183.75,-146.25,-120,-116.25
1567,-127.5,-75,-52.5,-146.25,-161.25,-183.75,-146.25,-116.25,-112.08333333333333
1568,-112.5,-60,-45,-142.5,-153.75,-176.25,-138.75,-108.75,-104.16666666666667
1569,-120,-67.5,-45,-146.25,-157.5,-180,-138.75,-112.5,-107.5
1570,-123.75,-71.25,-45,-150,-161.25,-183.75,-142.5,-116.25,-110.41666666666667
1571,-120,-63.75,-41.25,-146.25,-157.5,-180,-138.75,-116.25,-107.08333333333333
1572,-127.5,-60,-41.25,-146.25,-157.5,-180,-138.75,-120,-107.91666666666667
1573,-120,-41.25,-30,-135,-146.25,-172.5,-131.25,-108.75,-98.33333333333333
1574,-116.25,-22.5,-22.5,-120,-135,-165,-123.75,-97.5,-89.16666666666667
1575,-112.5,-30,-30,-123.75,-142.5,-176.25,-135,-105,-95.0
1576,-112.5,-48.75,-41.25,-138.75,-157.5,-187.5,-146.25,-116.25,-105.41666666666667
1577,-138.75,-71.25,-48.75,-146.25,-165,-187.5,-146.25,-123.75,-114.16666666666667
1578,-161.25,-93.75,-52.5,-153.75,-168.75,-187.5,-146.25,-123.75,-120.83333333333333
1579,-138.75,-86.25,-45,-142.5,-157.5,-180,-138.75,-120,-112.08333333333333
1580,-123.75,-86.25,-41.25,-142.5,-161.25,-176.25,-135,-116.25,-109.16666666666667
1581,-142.5,-93.75,-48.75,-157.5,-172.5,-191.25,-150,-127.5,-120.41666666666667
1582,-150,-86.25,-52.5,-161.25,-172.5,-195,-153.75,-131.25,-122.5
1583,-127.5,-60,-48.75,-153.75,-165,-187.5,-150,-127.5,-113.33333333333333
1584,-120,-52.5,-45,-146.25,-161.25,-183.75,-142.5,-123.75,-108.33333333333333
1585,-123.75,-60,-41.25,-138.75,-157.5,-180,-138.75,-112.5,-105.83333333333333
1586,-116.25,-48.75,-33.75,-127.5,-150,-172.5,-131.25,-105,-98.33333333333333
1587,-105,-45,-37.5,-131.25,-153.75,-176.25,-135,-108.75,-99.16666666666667
1588,-108.75,-60,-48.75,-146.25,-161.25,-183.75,-142.5,-120,-107.91666666666667
1589,-131.25,-78.75,-52.5,-150,-165,-187.5,-146.25,-123.75,-115.0
1590,-138.75,-78.75,-45,-146.25,-161.25,-183.75,-142.5,-120,-112.91666666666667
1591,-97.5,-45,-41.25,-142.5,-157.5,-180,-138.75,-112.5,-101.66666666666667
1592,-90,-41.25,-41.25,-146.25,-157.5,-183.75,-138.75,-116.25,-101.66666666666667
1593,-127.5,-75,-48.75,-157.5,-168.75,-191.25,-150,-127.5,-116.25
1594,-138.75,-86.25,-48.75,-161.25,-172.5,-191.25,-150,-127.5,-119.58333333333333
1595,-135,-67.5,-37.5,-146.25,-161.25,-183.75,-138.75,-120,-110.0
1596,-123.75,-52.5,-37.5,-142.5,-157.5,-180,-138.75,-116.25,-105.41666666666667
1597,-112.5,-48.75,-41.25,-142.5,-157.5,-183.75,-142.5,-116.25,-105.0
1598,-105,-41.25,-41.25,-138.75,-153.75,-180,-138.75,-116.25,-101.66666666666667
1599,-116.25,-56.25,-52.5,-146.25,-161.25,-187.5,-146.25,-123.75,-110.0
1600,-135,-82.5,-52.5,-150,-165,-191.25,-150,-123.75,-116.66666666666667
1601,-138.75,-93.75,-52.5,-153.75,-165,-191.25,-150,-120,-118.33333333333333
1602,-142.5,-97.5,-48.75,-150,-161.25,-191.25,-146.25,-120,-117.5
1603,-146.25,-90,-52.5,-153.75,-165,-191.25,-150,-123.75,-119.16666666666667
1604,-86.25,-52.5,-48.75,-153.75,-165,-191.25,-146.25,-123.75,-107.5
1605,-63.75,-41.25,-52.5,-157.5,-165,-191.25,-150,-123.75,-105.0
1606,-105,-48.75,-48.75,-153.75,-161.25,-187.5,-146.25,-120,-107.91666666666667
1607,-116.25,-41.25,-37.5,-142.5,-153.75,-180,-135,-112.5,-102.08333333333333
1608,-120,-45,-45,-150,-161.25,-187.5,-142.5,-116.25,-107.5
1609,-120,-48.75,-45,-146.25,-157.5,-183.75,-142.5,-116.25,-106.66666666666667
1610,-120,-56.25,-48.75,-150,-161.25,-191.25,-150,-123.75,-111.25
1611,-105,-60,-48.75,-146.25,-161.25,-191.25,-150,-123.75,-109.58333333333333
1612,-97.5,-63.75,-52.5,-150,-165,-195,-150,-123.75,-110.83333333333333
1613,-131.25,-78.75,-52.5,-153.75,-165,-195,-153.75,-123.75,-117.08333333333333
1614,-131.25,-67.5,-45,-146.25,-157.5,-187.5,-146.25,-116.25,-110.83333333333333
1615,-112.5,-52.5,-45,-146.25,-157.5,-187.5,-142.5,-112.5,-106.25
1616,-135,-75,-52.5,-157.5,-165,-191.25,-150,-123.75,-116.66666666666667
1617,-142.5,-78.75,-56.25,-165,-172.5,-198.75,-153.75,-127.5,-121.66666666666667
1618,-120,-56.25,-48.75,-161.25,-168.75,-195,-150,-123.75,-113.75
1619,-116.25,-48.75,-45,-157.5,-165,-187.5,-146.25,-120,-109.58333333333333
1620,-120,-48.75,-45,-153.75,-161.25,-187.5,-142.5,-120,-108.75
1621,-120,-45,-45,-153.75,-161.25,-187.5,-146.25,-120,-108.75
1622,-105,-37.5,-41.25,-142.5,-157.5,-187.5,-146.25,-116.25,-103.75
1623,-97.5,-48.75,-45,-142.5,-157.5,-187.5,-146.25,-120,-105.0
1624,-123.75,-78.75,-52.5,-153.75,-168.75,-195,-157.5,-127.5,-117.5
1625,-157.5,-97.5,-56.25,-161.25,-168.75,-198.75,-157.5,-131.25,-125.41666666666667
1626,-150,-86.25,-52.5,-153.75,-165,-195,-153.75,-127.5,-120.41666666666667
1627,-131.25,-75,-48.75,-150,-161.25,-191.25,-150,-123.75,-114.58333333333333
1628,-146.25,-75,-45,-150,-161.25,-195,-153.75,-123.75,-116.66666666666667
1629,-138.75,-56.25,-37.5,-146.25,-157.5,-191.25,-150,-116.25,-110.41666666666667
1630,-101.25,-26.25,-22.5,-138.75,-150,-180,-138.75,-112.5,-96.66666666666667
1631,-86.25,-11.25,-18.75,-131.25,-142.5,-172.5,-131.25,-108.75,-89.16666666666667
1632,-101.25,-15,-18.75,-123.75,-138.75,-165,-127.5,-108.75,-88.75
1633,-105,0,-3.75,-112.5,-127.5,-153.75,-116.25,-97.5,-79.58333333333333
1634,-93.75,22.5,7.5,-97.5,-116.25,-142.5,-105,-86.25,-67.91666666666667
1635,-101.25,11.25,11.25,-97.5,-116.25,-146.25,-112.5,-90,-71.25
1636,-108.75,-11.25,7.5,-105,-123.75,-157.5,-120,-97.5,-79.58333333333333
1637,-93.75,-15,11.25,-105,-123.75,-153.75,-120,-97.5,-77.5
1638,-75,0,15,-101.25,-120,-150,-116.25,-97.5,-71.66666666666667
1639,-78.75,0,15,-97.5,-116.25,-150,-116.25,-93.75,-70.83333333333333
1640,-82.5,-7.5,15,-97.5,-116.25,-150,-112.5,-93.75,-71.66666666666667
1641,-67.5,-3.75,15,-93.75,-112.5,-146.25,-108.75,-90,-67.5
1642,-67.5,3.75,26.25,-90,-108.75,-138.75,-105,-90,-63.333333333333336
1643,-78.75,3.75,30,-86.25,-112.5,-142.5,-108.75,-93.75,-65.41666666666667
1644,-78.75,22.5,33.75,-82.5,-105,-138.75,-101.25,-90,-60.0
1645,-78.75,45,37.5,-75,-97.5,-135,-97.5,-82.5,-53.75
1646,-93.75,41.25,37.5,-67.5,-93.75,-127.5,-93.75,-75,-52.5
1647,-86.25,26.25,30,-67.5,-93.75,-131.25,-93.75,-75,-54.583333333333336
1648,-75,18.75,18.75,-82.5,-101.25,-131.25,-93.75,-75,-57.916666666666664
1649,-63.75,41.25,11.25,-82.5,-97.5,-123.75,-82.5,-60,-50.833333333333336
1650,-48.75,52.5,-3.75,-82.5,-97.5,-123.75,-82.5,-63.75,-50.0
1651,-48.75,30,-30,-97.5,-108.75,-138.75,-97.5,-75,-62.916666666666664
1652,-56.25,7.5,-48.75,-120,-123.75,-150,-105,-82.5,-75.41666666666667
1653,-75,-22.5,-63.75,-135,-138.75,-161.25,-116.25,-93.75,-89.58333333333333
1654,-75,-18.75,-60,-135,-138.75,-157.5,-116.25,-93.75,-88.33333333333333
1655,-48.75,15,-56.25,-127.5,-131.25,-150,-112.5,-86.25,-77.5
1656,-33.75,26.25,-67.5,-131.25,-131.25,-153.75,-112.5,-90,-77.08333333333333
1657,-56.25,11.25,-71.25,-135,-135,-153.75,-112.5,-90,-82.5
1658,-60,18.75,-71.25,-131.25,-131.25,-153.75,-108.75,-82.5,-80.0
1659,-52.5,18.75,-63.75,-127.5,-127.5,-150,-105,-78.75,-76.25
1660,-60,-7.5,-63.75,-135,-135,-157.5,-112.5,-82.5,-83.75
1661,-45,3.75,-71.25,-146.25,-146.25,-165,-120,-90,-86.66666666666667
1662,-41.25,7.5,-78.75,-153.75,-153.75,-172.5,-127.5,-97.5,-90.83333333333333
1663,-67.5,-30,-82.5,-165,-161.25,-180,-138.75,-108.75,-103.75
1664,-67.5,-45,-75,-161.25,-161.25,-180,-138.75,-108.75,-104.16666666666667
1665,-71.25,-45,-67.5,-157.5,-157.5,-172.5,-131.25,-105,-100.83333333333333
1666,-82.5,-37.5,-63.75,-157.5,-153.75,-172.5,-135,-105,-100.83333333333333
1667,-93.75,-26.25,-56.25,-146.25,-146.25,-161.25,-127.5,-97.5,-95.0
1668,-90,-15,-48.75,-142.5,-138.75,-157.5,-120,-90,-89.16666666666667
1669,-75,0,-48.75,-138.75,-138.75,-153.75,-116.25,-86.25,-84.16666666666667
1670,-90,-15,-48.75,-138.75,-142.5,-161.25,-123.75,-90,-90.0
1671,-86.25,-30,-60,-150,-153.75,-176.25,-135,-105,-99.58333333333333
1672,-67.5,-22.5,-63.75,-153.75,-161.25,-180,-142.5,-112.5,-100.41666666666667
1673,-86.25,-33.75,-63.75,-157.5,-165,-183.75,-146.25,-116.25,-105.83333333333333
1674,-101.25,-45,-60,-157.5,-161.25,-180,-142.5,-112.5,-106.66666666666667
1675,-116.25,-48.75,-56.25,-157.5,-161.25,-183.75,-142.5,-116.25,-109.16666666666667
1676,-131.25,-71.25,-63.75,-168.75,-172.5,-191.25,-150,-123.75,-119.16666666666667
1677,-116.25,-78.75,-71.25,-180,-183.75,-202.5,-161.25,-135,-125.41666666666667
1678,-86.25,-41.25,-60,-176.25,-180,-195,-157.5,-127.5,-113.75
1679,-97.5,-33.75,-52.5,-168.75,-172.5,-195,-157.5,-127.5,-111.66666666666667
1680,-127.5,-56.25,-56.25,-176.25,-180,-202.5,-165,-138.75,-122.5
1681,-127.5,-48.75,-56.25,-172.5,-176.25,-202.5,-165,-135,-120.41666666666667
1682,-108.75,-33.75,-56.25,-165,-172.5,-198.75,-161.25,-131.25,-114.16666666666667
1683,-108.75,-45,-63.75,-168.75,-180,-206.25,-168.75,-138.75,-120.0
1684,-131.25,-75,-71.25,-176.25,-183.75,-210,-172.5,-142.5,-129.16666666666666
1685,-135,-82.5,-71.25,-180,-187.5,-210,-172.5,-142.5,-131.25
1686,-120,-67.5,-67.5,-172.5,-180,-206.25,-165,-138.75,-124.16666666666667
1687,-120,-63.75,-60,-165,-172.5,-198.75,-157.5,-127.5,-118.33333333333333
1688,-116.25,-75,-67.5,-176.25,-183.75,-206.25,-168.75,-138.75,-125.83333333333333
1689,-101.25,-75,-75,-187.5,-191.25,-213.75,-176.25,-146.25,-129.58333333333334
1690,-120,-78.75,-71.25,-187.5,-187.5,-210,-172.5,-142.5,-130.0
1691,-135,-86.25,-71.25,-183.75,-191.25,-210,-168.75,-142.5,-132.08333333333334
1692,-123.75,-82.5,-67.5,-180,-187.5,-210,-168.75,-142.5,-129.16666666666666
1693,-112.5,-67.5,-60,-168.75,-176.25,-202.5,-165,-135,-120.83333333333333
1694,-120,-60,-56.25,-161.25,-168.75,-198.75,-161.25,-131.25,-117.5
1695,-135,-71.25,-63.75,-168.75,-176.25,-202.5,-168.75,-138.75,-125.0
1696,-127.5,-75,-75,-176.25,-187.5,-213.75,-176.25,-146.25,-130.83333333333334
1697,-112.5,-67.5,-67.5,-176.25,-183.75,-210,-168.75,-142.5,-125.41666666666667
1698,-112.5,-52.5,-56.25,-165,-172.5,-195,-157.5,-127.5,-115.41666666666667
1699,-123.75,-60,-52.5,-157.5,-168.75,-191.25,-153.75,-127.5,-115.0
1700,-146.25,-101.25,-71.25,-180,-187.5,-210,-176.25,-146.25,-135.41666666666666
1701,-150,-112.5,-71.25,-183.75,-191.25,-217.5,-183.75,-157.5,-140.83333333333334
1702,-138.75,-86.25,-52.5,-161.25,-180,-210,-176.25,-157.5,-129.16666666666666
1703,-138.75,-78.75,-11.25,-123.75,-161.25,-202.5,-176.25,-157.5,-116.66666666666667
1704,-142.5,-97.5,30,-82.5,-150,-210,-195,-180,-114.16666666666667
1705,-138.75,-123.75,75,-41.25,-142.5,-228.75,-221.25,-213.75,-115.0
1706,-112.5,-131.25,123.75,3.75,-138.75,-251.25,-251.25,-240,-110.83333333333333
1707,-86.25,-127.5,157.5,41.25,-135,-262.5,-270,-258.75,-104.58333333333333
1708,-82.5,-127.5,183.75,78.75,-116.25,-258.75,-270,-258.75,-94.58333333333333
1709,-90,-105,221.25,146.25,-63.75,-225,-240,-232.5,-65.41666666666667
1710,-71.25,-48.75,262.5,225,7.5,-168.75,-195,-187.5,-19.583333333333332
1711,-11.25,15,285,288.75,63.75,-120,-146.25,-146.25,25.416666666666668
1712,71.25,78.75,296.25,337.5,123.75,-56.25,-90,-97.5,73.75
1713,138.75,142.5,303.75,382.5,180,11.25,-22.5,-37.5,122.08333333333333
1714,191.25,198.75,303.75,427.5,240,86.25,52.5,30,170.0
1715,247.5,262.5,285,472.5,307.5,168.75,142.5,116.25,222.5
1716,300,352.5,255,506.25,390,273.75,255,225,284.1666666666667
1717,363.75,476.25,225,521.25,472.5,386.25,375,345,351.6666666666667
1718,476.25,630,172.5,528.75,562.5,517.5,517.5,491.25,432.9166666666667
1719,600,821.25,150,581.25,686.25,678.75,690,652.5,540.0
1720,641.25,993.75,142.5,645,817.5,851.25,866.25,817.5,641.6666666666666
1721,641.25,1151.25,60,618.75,900,1005,1046.25,1005,714.1666666666666
1722,656.25,1335,-63.75,543.75,963.75,1158.75,1245,1218.75,784.1666666666666
1723,727.5,1466.25,-176.25,446.25,1001.25,1282.5,1402.5,1380,836.6666666666666
1724,810,1518.75,-303.75,277.5,982.5,1353.75,1500,1481.25,846.6666666666666
1725,806.25,1552.5,-386.25,153.75,982.5,1428.75,1593.75,1563.75,855.0
1726,701.25,1496.25,-390,138.75,1035,1503.75,1653.75,1593.75,859.1666666666666
1727,585,1398.75,-375,123.75,1080,1552.5,1680,1575,846.6666666666666
1728,483.75,1331.25,-393.75,41.25,1072.5,1560,1665,1541.25,811.25
1729,360,1218.75,-446.25,-86.25,986.25,1473.75,1571.25,1443.75,724.5833333333334
1730,255,1061.25,-450,-191.25,847.5,1293.75,1383.75,1275,608.3333333333334
1731,127.5,870,-405,-258.75,682.5,1050,1132.5,1050,472.0833333333333
1732,-3.75,682.5,-393.75,-375,442.5,750,847.5,810,306.6666666666667
1733,-108.75,521.25,-435,-547.5,150,423.75,551.25,577.5,125.83333333333333
1734,-191.25,382.5,-442.5,-682.5,-90,157.5,307.5,382.5,-19.583333333333332
1735,-255,262.5,-416.25,-727.5,-213.75,0,142.5,228.75,-108.75
1736,-281.25,165,-390,-697.5,-247.5,-78.75,33.75,101.25,-155.0
1737,-292.5,75,-390,-667.5,-258.75,-127.5,-45,3.75,-189.16666666666666
1738,-296.25,30,-386.25,-622.5,-247.5,-142.5,-71.25,-33.75,-196.66666666666666
1739,-277.5,26.25,-371.25,-558.75,-217.5,-120,-56.25,-30,-178.33333333333334
1740,-247.5,30,-348.75,-506.25,-210,-116.25,-52.5,-26.25,-164.16666666666666
1741,-206.25,37.5,-318.75,-461.25,-217.5,-135,-63.75,-26.25,-154.58333333333334
1742,-172.5,37.5,-285,-405,-210,-138.75,-63.75,-30,-140.83333333333334
1743,-157.5,30,-258.75,-352.5,-187.5,-138.75,-71.25,-37.5,-130.41666666666666
1744,-127.5,52.5,-228.75,-292.5,-146.25,-108.75,-52.5,-22.5,-102.91666666666667
1745,-86.25,78.75,-191.25,-221.25,-93.75,-71.25,-22.5,3.75,-67.08333333333333
1746,-90,60,-165,-168.75,-63.75,-56.25,-15,3.75,-55.0
1747,-101.25,37.5,-138.75,-142.5,-52.5,-56.25,-18.75,-7.5,-53.333333333333336
1748,-123.75,11.25,-112.5,-123.75,-48.75,-60,-30,-18.75,-56.25
1749,-116.25,11.25,-90,-108.75,-45,-63.75,-33.75,-26.25,-52.5
1750,-82.5,37.5,-63.75,-90,-33.75,-52.5,-30,-22.5,-37.5
1751,-67.5,45,-52.5,-82.5,-37.5,-60,-37.5,-26.25,-35.416666666666664
1752,-48.75,52.5,-48.75,-82.5,-45,-71.25,-45,-37.5,-36.25
1753,-45,48.75,-41.25,-75,-45,-75,-52.5,-41.25,-36.25
1754,-45,37.5,-41.25,-75,-52.5,-82.5,-56.25,-45,-40.0
1755,-60,18.75,-45,-78.75,-60,-97.5,-71.25,-60,-50.416666666666664
1756,-108.75,-7.5,-45,-78.75,-71.25,-105,-78.75,-67.5,-62.5
1757,-108.75,-11.25,-45,-82.5,-75,-108.75,-82.5,-71.25,-65.0
1758,-75,0,-41.25,-82.5,-78.75,-112.5,-86.25,-71.25,-60.833333333333336
1759,-60,-3.75,-48.75,-86.25,-86.25,-123.75,-101.25,-82.5,-65.83333333333333
1760,-67.5,-22.5,-52.5,-93.75,-93.75,-135,-108.75,-93.75,-74.16666666666667
1761,-82.5,-26.25,-48.75,-101.25,-101.25,-138.75,-108.75,-93.75,-77.91666666666667
1762,-78.75,-7.5,-41.25,-93.75,-97.5,-131.25,-101.25,-90,-71.25
1763,-67.5,7.5,-33.75,-86.25,-90,-123.75,-93.75,-86.25,-63.75
1764,-78.75,-7.5,-41.25,-90,-97.5,-127.5,-101.25,-93.75,-70.83333333333333
1765,-90,-22.5,-45,-90,-97.5,-127.5,-105,-97.5,-75.0
1766,-71.25,-11.25,-37.5,-78.75,-90,-123.75,-97.5,-86.25,-66.25
1767,-52.5,3.75,-33.75,-71.25,-82.5,-120,-93.75,-82.5,-59.166666666666664
1768,-63.75,-3.75,-33.75,-71.25,-86.25,-120,-93.75,-82.5,-61.666666666666664
1769,-71.25,-11.25,-37.5,-78.75,-90,-123.75,-97.5,-82.5,-65.83333333333333
1770,-67.5,-11.25,-33.75,-78.75,-90,-123.75,-97.5,-82.5,-65.0
1771,-63.75,-18.75,-41.25,-82.5,-97.5,-131.25,-105,-90,-70.0
1772,-52.5,-26.25,-45,-90,-105,-138.75,-108.75,-93.75,-73.33333333333333
1773,-82.5,-48.75,-56.25,-97.5,-112.5,-142.5,-116.25,-101.25,-84.16666666666667
1774,-78.75,-33.75,-52.5,-97.5,-108.75,-135,-108.75,-97.5,-79.16666666666667
1775,-60,-3.75,-37.5,-82.5,-93.75,-123.75,-101.25,-90,-65.83333333333333
1776,-56.25,3.75,-26.25,-71.25,-82.5,-116.25,-90,-78.75,-57.5
1777,-15,22.5,-22.5,-63.75,-75,-108.75,-86.25,-75,-47.083333333333336
1778,-22.5,15,-26.25,-63.75,-78.75,-112.5,-90,-78.75,-50.833333333333336
1779,-86.25,-26.25,-33.75,-67.5,-82.5,-120,-93.75,-82.5,-65.83333333333333
1780,-97.5,-37.5,-45,-67.5,-86.25,-120,-93.75,-82.5,-70.0
