samplenr,I,II,V1,V2,V3,V4,V5,V6,measurement
0,-157.5,101.25,-292.5,-416.25,-105,-37.5,-18.75,33.75,-99.16666666666667
1,-108.75,105,-288.75,-401.25,-131.25,-63.75,-33.75,26.25,-99.58333333333333
2,-97.5,71.25,-296.25,-397.5,-176.25,-112.5,-71.25,0,-120.0
3,-97.5,41.25,-292.5,-382.5,-191.25,-138.75,-97.5,-26.25,-131.66666666666666
4,-71.25,52.5,-262.5,-341.25,-176.25,-135,-97.5,-26.25,-117.5
5,-56.25,60,-236.25,-296.25,-150,-120,-86.25,-18.75,-100.41666666666667
6,-52.5,71.25,-206.25,-228.75,-101.25,-86.25,-60,3.75,-73.33333333333333
7,0,123.75,-153.75,-150,-41.25,-37.5,-22.5,37.5,-27.083333333333332
8,67.5,176.25,-108.75,-97.5,-3.75,-15,0,48.75,7.5
9,90,180,-82.5,-67.5,11.25,-7.5,3.75,52.5,20.0
10,48.75,131.25,-75,-63.75,7.5,-18.75,-11.25,37.5,6.25
11,-18.75,67.5,-82.5,-71.25,-11.25,-41.25,-33.75,15,-19.583333333333332
12,-41.25,33.75,-78.75,-75,-22.5,-52.5,-48.75,3.75,-31.25
13,-18.75,33.75,-78.75,-75,-26.25,-63.75,-63.75,-7.5,-33.333333333333336
14,15,60,-67.5,-71.25,-26.25,-67.5,-60,-3.75,-24.583333333333332
15,22.5,60,-67.5,-75,-37.5,-71.25,-67.5,-11.25,-27.5
16,-18.75,22.5,-71.25,-82.5,-52.5,-82.5,-78.75,-30,-43.75
17,-45,7.5,-67.5,-82.5,-48.75,-82.5,-82.5,-30,-47.916666666666664
18,-33.75,11.25,-63.75,-78.75,-48.75,-78.75,-82.5,-33.75,-45.416666666666664
19,-22.5,7.5,-67.5,-86.25,-60,-90,-90,-41.25,-50.0
20,11.25,41.25,-52.5,-71.25,-56.25,-82.5,-82.5,-30,-35.833333333333336
21,30,82.5,-33.75,-48.75,-33.75,-67.5,-63.75,-7.5,-15.833333333333334
22,11.25,56.25,-48.75,-60,-45,-78.75,-75,-22.5,-29.166666666666668
23,7.5,30,-71.25,-78.75,-63.75,-97.5,-93.75,-37.5,-45.0
24,22.5,56.25,-56.25,-63.75,-52.5,-86.25,-82.5,-22.5,-31.666666666666668
25,30,63.75,-60,-63.75,-56.25,-90,-86.25,-30,-32.5
26,56.25,67.5,-60,-67.5,-60,-93.75,-90,-33.75,-31.25
27,63.75,75,-56.25,-63.75,-52.5,-90,-82.5,-30,-26.25
28,30,52.5,-56.25,-67.5,-52.5,-90,-82.5,-30,-32.916666666666664
29,26.25,37.5,-60,-75,-63.75,-97.5,-90,-37.5,-40.0
30,41.25,48.75,-52.5,-67.5,-60,-93.75,-86.25,-37.5,-34.166666666666664
31,26.25,37.5,-60,-71.25,-67.5,-101.25,-90,-41.25,-40.833333333333336
32,-3.75,11.25,-71.25,-78.75,-75,-108.75,-97.5,-45,-52.083333333333336
33,-3.75,26.25,-67.5,-71.25,-63.75,-101.25,-93.75,-37.5,-45.833333333333336
34,15,45,-63.75,-63.75,-56.25,-93.75,-86.25,-30,-37.083333333333336
35,48.75,60,-60,-56.25,-52.5,-86.25,-78.75,-22.5,-27.5
36,60,71.25,-56.25,-56.25,-52.5,-86.25,-75,-18.75,-23.75
37,63.75,71.25,-52.5,-48.75,-41.25,-78.75,-71.25,-15,-19.166666666666668
38,48.75,56.25,-60,-56.25,-45,-82.5,-75,-18.75,-25.833333333333332
39,30,33.75,-63.75,-63.75,-56.25,-90,-82.5,-26.25,-35.416666666666664
40,41.25,37.5,-56.25,-56.25,-48.75,-82.5,-75,-18.75,-28.75
41,56.25,48.75,-52.5,-52.5,-41.25,-78.75,-67.5,-15,-22.5
42,33.75,41.25,-56.25,-52.5,-41.25,-75,-67.5,-18.75,-26.25
43,22.5,33.75,-63.75,-52.5,-45,-78.75,-71.25,-18.75,-30.416666666666668
44,71.25,63.75,-60,-45,-37.5,-75,-63.75,-15,-17.916666666666668
45,116.25,101.25,-56.25,-37.5,-26.25,-67.5,-56.25,-3.75,-3.3333333333333335
46,97.5,93.75,-60,-37.5,-26.25,-67.5,-56.25,-3.75,-6.666666666666667
47,48.75,67.5,-67.5,-45,-37.5,-75,-63.75,-7.5,-20.0
48,33.75,56.25,-67.5,-45,-37.5,-71.25,-60,-7.5,-22.083333333333332
49,67.5,75,-63.75,-45,-33.75,-71.25,-60,-3.75,-15.0
50,93.75,97.5,-60,-37.5,-26.25,-63.75,-52.5,0,-5.416666666666667
51,97.5,101.25,-60,-37.5,-26.25,-60,-52.5,0,-4.166666666666667
52,86.25,86.25,-67.5,-45,-33.75,-67.5,-60,-7.5,-12.083333333333334
53,63.75,63.75,-75,-52.5,-41.25,-75,-67.5,-15,-22.083333333333332
54,52.5,56.25,-71.25,-45,-37.5,-75,-63.75,-11.25,-21.666666666666668
55,67.5,60,-71.25,-41.25,-30,-71.25,-63.75,-11.25,-17.916666666666668
56,93.75,82.5,-67.5,-30,-18.75,-56.25,-48.75,3.75,-4.583333333333333
57,93.75,93.75,-63.75,-22.5,-15,-52.5,-45,11.25,0.0
58,97.5,101.25,-67.5,-22.5,-11.25,-48.75,-41.25,15,2.5
59,120,120,-63.75,-18.75,-7.5,-41.25,-33.75,22.5,10.833333333333334
60,112.5,116.25,-63.75,-18.75,-7.5,-41.25,-33.75,22.5,9.583333333333334
61,101.25,116.25,-63.75,-15,-3.75,-37.5,-30,22.5,10.0
62,93.75,105,-71.25,-22.5,-11.25,-41.25,-33.75,18.75,4.166666666666667
63,101.25,97.5,-78.75,-30,-15,-45,-41.25,11.25,0.0
64,112.5,97.5,-78.75,-33.75,-18.75,-48.75,-37.5,11.25,0.4166666666666667
65,101.25,90,-78.75,-30,-15,-41.25,-33.75,15,0.8333333333333334
66,93.75,93.75,-75,-26.25,-11.25,-41.25,-33.75,18.75,2.0833333333333335
67,127.5,131.25,-60,-7.5,3.75,-26.25,-18.75,33.75,20.416666666666668
68,176.25,168.75,-52.5,3.75,15,-15,-7.5,45,37.083333333333336
69,187.5,176.25,-60,0,11.25,-18.75,-7.5,45,37.083333333333336
70,168.75,165,-63.75,-7.5,7.5,-18.75,-11.25,45,31.666666666666668
71,153.75,150,-67.5,-7.5,3.75,-22.5,-11.25,45,27.083333333333332
72,138.75,135,-75,-11.25,0,-22.5,-15,45,21.666666666666668
73,142.5,142.5,-75,-7.5,7.5,-18.75,-7.5,48.75,25.833333333333332
74,142.5,135,-78.75,-15,3.75,-22.5,-11.25,41.25,21.666666666666668
75,131.25,112.5,-86.25,-22.5,-7.5,-33.75,-18.75,37.5,12.5
76,127.5,97.5,-90,-30,-11.25,-33.75,-22.5,33.75,7.916666666666667
77,120,93.75,-97.5,-33.75,-15,-33.75,-22.5,30,4.583333333333333
78,127.5,105,-97.5,-30,-15,-37.5,-22.5,33.75,7.083333333333333
79,138.75,123.75,-86.25,-18.75,0,-26.25,-7.5,45,18.75
80,123.75,123.75,-82.5,-11.25,7.5,-15,0,56.25,22.5
81,123.75,116.25,-93.75,-15,-3.75,-26.25,-11.25,48.75,15.416666666666666
82,153.75,127.5,-97.5,-18.75,-3.75,-30,-15,45,17.916666666666668
83,172.5,157.5,-90,-15,0,-18.75,-3.75,56.25,28.75
84,157.5,161.25,-90,-11.25,3.75,-11.25,3.75,63.75,30.833333333333332
85,150,142.5,-97.5,-18.75,0,-15,0,60,24.583333333333332
86,168.75,142.5,-108.75,-33.75,-11.25,-26.25,-7.5,52.5,19.583333333333332
87,187.5,153.75,-105,-33.75,-11.25,-26.25,-3.75,52.5,23.75
88,191.25,153.75,-101.25,-26.25,-3.75,-18.75,3.75,60,28.75
89,198.75,161.25,-93.75,-18.75,0,-15,7.5,67.5,34.166666666666664
90,210,180,-90,-15,3.75,-11.25,15,75,40.833333333333336
91,202.5,172.5,-93.75,-18.75,3.75,-11.25,11.25,75,37.916666666666664
92,191.25,165,-97.5,-15,0,-11.25,11.25,75,35.416666666666664
93,198.75,168.75,-101.25,-15,-3.75,-18.75,7.5,71.25,34.166666666666664
94,210,168.75,-112.5,-30,-11.25,-26.25,3.75,67.5,30.0
95,240,206.25,-101.25,-22.5,-7.5,-15,18.75,82.5,44.583333333333336
96,255,228.75,-93.75,-15,3.75,-3.75,26.25,93.75,55.0
97,225,176.25,-116.25,-33.75,-18.75,-30,3.75,75,31.25
98,210,146.25,-127.5,-52.5,-33.75,-41.25,-7.5,63.75,17.5
99,217.5,153.75,-123.75,-52.5,-37.5,-37.5,-3.75,63.75,20.0
100,217.5,157.5,-123.75,-56.25,-41.25,-41.25,-7.5,60,18.333333333333332
101,195,146.25,-123.75,-56.25,-45,-45,-11.25,60,13.333333333333334
102,165,131.25,-123.75,-60,-45,-48.75,-11.25,60,7.5
103,183.75,161.25,-112.5,-48.75,-33.75,-37.5,3.75,75,21.25
104,221.25,198.75,-105,-37.5,-30,-33.75,7.5,82.5,33.75
105,232.5,191.25,-120,-52.5,-45,-48.75,-3.75,71.25,25.0
106,225,180,-127.5,-63.75,-56.25,-56.25,-15,63.75,16.666666666666668
107,225,187.5,-123.75,-63.75,-56.25,-60,-15,71.25,18.333333333333332
108,240,202.5,-112.5,-60,-56.25,-52.5,-7.5,78.75,25.833333333333332
109,202.5,195,-105,-48.75,-45,-41.25,3.75,90,27.916666666666668
110,153.75,161.25,-112.5,-60,-52.5,-48.75,-3.75,78.75,12.916666666666666
111,195,157.5,-131.25,-82.5,-75,-67.5,-26.25,56.25,2.9166666666666665
112,240,187.5,-116.25,-71.25,-63.75,-56.25,-11.25,71.25,20.0
113,221.25,195,-101.25,-56.25,-52.5,-45,0,82.5,27.083333333333332
114,228.75,195,-101.25,-60,-60,-52.5,-7.5,75,24.166666666666668
115,240,191.25,-108.75,-71.25,-71.25,-63.75,-18.75,63.75,17.916666666666668
116,217.5,198.75,-93.75,-60,-63.75,-60,-15,75,22.083333333333332
117,221.25,217.5,-86.25,-48.75,-56.25,-52.5,-7.5,78.75,29.583333333333332
118,258.75,240,-82.5,-45,-52.5,-52.5,-7.5,78.75,37.5
119,262.5,228.75,-90,-56.25,-60,-60,-15,71.25,31.25
120,198.75,168.75,-105,-78.75,-82.5,-82.5,-37.5,48.75,3.3333333333333335
121,157.5,131.25,-112.5,-93.75,-105,-97.5,-52.5,33.75,-15.416666666666666
122,153.75,123.75,-112.5,-93.75,-105,-101.25,-56.25,26.25,-18.333333333333332
123,161.25,131.25,-105,-82.5,-90,-93.75,-52.5,26.25,-11.666666666666666
124,168.75,146.25,-90,-75,-82.5,-86.25,-45,30,-3.75
125,153.75,131.25,-86.25,-71.25,-82.5,-90,-52.5,26.25,-7.916666666666667
126,127.5,120,-75,-63.75,-78.75,-86.25,-52.5,22.5,-9.583333333333334
127,135,138.75,-71.25,-60,-75,-86.25,-52.5,22.5,-5.416666666666667
128,150,146.25,-71.25,-60,-75,-90,-52.5,22.5,-3.3333333333333335
129,172.5,165,-60,-45,-63.75,-78.75,-45,30,8.333333333333334
130,176.25,168.75,-60,-45,-63.75,-78.75,-48.75,26.25,8.333333333333334
131,153.75,146.25,-63.75,-48.75,-67.5,-86.25,-56.25,18.75,-0.4166666666666667
132,123.75,131.25,-56.25,-48.75,-67.5,-90,-60,15,-5.833333333333333
133,135,150,-45,-41.25,-56.25,-78.75,-56.25,18.75,2.9166666666666665
134,153.75,157.5,-45,-41.25,-56.25,-75,-52.5,18.75,6.666666666666667
135,146.25,135,-56.25,-56.25,-71.25,-90,-67.5,3.75,-6.25
136,108.75,105,-52.5,-56.25,-71.25,-97.5,-71.25,-3.75,-15.416666666666666
137,82.5,97.5,-37.5,-45,-56.25,-86.25,-63.75,0,-12.083333333333334
138,86.25,93.75,-37.5,-45,-60,-86.25,-67.5,-3.75,-13.333333333333334
139,82.5,82.5,-45,-48.75,-63.75,-90,-67.5,-7.5,-17.5
140,78.75,82.5,-41.25,-45,-60,-86.25,-71.25,-7.5,-16.666666666666668
141,97.5,105,-33.75,-37.5,-52.5,-86.25,-67.5,-7.5,-9.166666666666666
142,112.5,116.25,-41.25,-45,-60,-93.75,-75,-15,-11.25
143,93.75,101.25,-45,-48.75,-60,-93.75,-78.75,-18.75,-16.666666666666668
144,41.25,75,-37.5,-45,-56.25,-90,-75,-15,-22.5
145,22.5,78.75,-22.5,-33.75,-45,-78.75,-63.75,-3.75,-16.25
146,60,86.25,-26.25,-37.5,-48.75,-82.5,-67.5,-11.25,-14.166666666666666
147,78.75,75,-33.75,-52.5,-60,-93.75,-82.5,-26.25,-21.666666666666668
148,82.5,86.25,-26.25,-45,-52.5,-82.5,-71.25,-18.75,-14.166666666666666
149,86.25,86.25,-26.25,-48.75,-60,-90,-78.75,-26.25,-17.5
150,75,67.5,-26.25,-56.25,-63.75,-97.5,-86.25,-30,-24.166666666666668
151,33.75,48.75,-26.25,-56.25,-63.75,-97.5,-86.25,-33.75,-31.25
152,15,41.25,-26.25,-56.25,-63.75,-97.5,-86.25,-33.75,-34.166666666666664
153,15,48.75,-26.25,-52.5,-63.75,-97.5,-86.25,-33.75,-32.916666666666664
154,18.75,52.5,-30,-60,-67.5,-101.25,-90,-37.5,-35.0
155,41.25,71.25,-22.5,-56.25,-63.75,-97.5,-86.25,-33.75,-27.5
156,45,67.5,-26.25,-63.75,-71.25,-105,-93.75,-41.25,-32.083333333333336
157,11.25,33.75,-41.25,-78.75,-82.5,-116.25,-105,-52.5,-47.916666666666664
158,-3.75,22.5,-41.25,-82.5,-86.25,-120,-108.75,-56.25,-52.916666666666664
159,-3.75,26.25,-37.5,-78.75,-78.75,-112.5,-101.25,-52.5,-48.75
160,11.25,37.5,-37.5,-86.25,-82.5,-112.5,-105,-52.5,-47.5
161,15,41.25,-33.75,-82.5,-82.5,-116.25,-105,-52.5,-46.25
162,-7.5,33.75,-37.5,-86.25,-86.25,-120,-112.5,-60,-52.916666666666664
163,-22.5,37.5,-37.5,-82.5,-82.5,-120,-108.75,-60,-52.916666666666664
164,0,52.5,-33.75,-75,-78.75,-116.25,-105,-56.25,-45.833333333333336
165,22.5,52.5,-33.75,-78.75,-82.5,-123.75,-108.75,-56.25,-45.416666666666664
166,60,90,-18.75,-67.5,-67.5,-108.75,-93.75,-41.25,-27.5
167,45,86.25,-15,-63.75,-63.75,-101.25,-90,-37.5,-26.666666666666668
168,-3.75,26.25,-37.5,-90,-90,-127.5,-116.25,-63.75,-55.833333333333336
169,-15,15,-45,-97.5,-93.75,-131.25,-120,-71.25,-62.083333333333336
170,-18.75,22.5,-33.75,-90,-86.25,-123.75,-108.75,-63.75,-55.833333333333336
171,-15,15,-33.75,-90,-86.25,-120,-108.75,-63.75,-55.833333333333336
172,-7.5,11.25,-41.25,-101.25,-93.75,-127.5,-116.25,-71.25,-60.833333333333336
173,-7.5,15,-41.25,-93.75,-86.25,-127.5,-112.5,-67.5,-57.916666666666664
174,-7.5,26.25,-33.75,-90,-86.25,-123.75,-108.75,-63.75,-54.166666666666664
175,-22.5,18.75,-33.75,-90,-90,-127.5,-116.25,-67.5,-58.75
176,-11.25,26.25,-37.5,-82.5,-82.5,-131.25,-116.25,-63.75,-55.416666666666664
177,18.75,52.5,-30,-75,-71.25,-123.75,-108.75,-56.25,-43.75
178,15,52.5,-26.25,-71.25,-71.25,-116.25,-101.25,-48.75,-40.833333333333336
179,-3.75,37.5,-30,-71.25,-67.5,-108.75,-97.5,-48.75,-43.333333333333336
180,3.75,26.25,-41.25,-78.75,-71.25,-112.5,-97.5,-56.25,-47.5
181,22.5,41.25,-37.5,-75,-71.25,-105,-93.75,-52.5,-41.25
182,-7.5,41.25,-26.25,-67.5,-60,-97.5,-86.25,-41.25,-38.333333333333336
183,-41.25,11.25,-33.75,-78.75,-67.5,-105,-93.75,-52.5,-51.25
184,-15,11.25,-41.25,-86.25,-75,-112.5,-101.25,-60,-53.333333333333336
185,15,37.5,-30,-75,-67.5,-105,-93.75,-52.5,-41.25
186,15,52.5,-15,-63.75,-52.5,-93.75,-82.5,-41.25,-31.25
187,11.25,52.5,-18.75,-63.75,-56.25,-93.75,-86.25,-45,-33.333333333333336
188,-18.75,37.5,-26.25,-63.75,-56.25,-97.5,-90,-45,-40.0
189,-7.5,48.75,-26.25,-63.75,-56.25,-97.5,-86.25,-45,-37.083333333333336
190,48.75,90,-22.5,-60,-52.5,-93.75,-82.5,-37.5,-23.333333333333332
191,60,97.5,-26.25,-60,-48.75,-90,-78.75,-37.5,-20.416666666666668
192,26.25,67.5,-37.5,-71.25,-60,-101.25,-93.75,-48.75,-35.416666666666664
193,11.25,45,-41.25,-75,-63.75,-101.25,-97.5,-52.5,-41.666666666666664
194,18.75,37.5,-45,-82.5,-67.5,-105,-101.25,-56.25,-44.583333333333336
195,7.5,26.25,-52.5,-93.75,-75,-112.5,-105,-60,-51.666666666666664
196,-26.25,18.75,-45,-90,-75,-108.75,-101.25,-56.25,-53.75
197,-26.25,33.75,-33.75,-75,-63.75,-97.5,-90,-45,-44.166666666666664
198,-7.5,37.5,-33.75,-71.25,-63.75,-97.5,-90,-48.75,-41.666666666666664
199,-18.75,22.5,-41.25,-78.75,-63.75,-105,-97.5,-52.5,-48.333333333333336
200,3.75,41.25,-37.5,-67.5,-60,-97.5,-90,-45,-39.166666666666664
201,22.5,63.75,-37.5,-63.75,-52.5,-93.75,-86.25,-41.25,-32.083333333333336
202,-3.75,60,-33.75,-60,-48.75,-86.25,-78.75,-33.75,-31.666666666666668
203,7.5,67.5,-33.75,-60,-48.75,-86.25,-75,-33.75,-29.166666666666668
204,7.5,56.25,-45,-71.25,-56.25,-90,-82.5,-41.25,-35.833333333333336
205,3.75,48.75,-48.75,-75,-60,-97.5,-90,-45,-40.416666666666664
206,37.5,63.75,-45,-71.25,-56.25,-93.75,-86.25,-45,-32.916666666666664
207,71.25,75,-41.25,-71.25,-52.5,-86.25,-82.5,-41.25,-25.416666666666668
208,52.5,45,-52.5,-86.25,-67.5,-101.25,-93.75,-52.5,-39.583333333333336
209,0,11.25,-56.25,-90,-75,-108.75,-101.25,-60,-53.333333333333336
210,-22.5,15,-48.75,-78.75,-63.75,-101.25,-97.5,-52.5,-50.0
211,-26.25,37.5,-33.75,-63.75,-48.75,-86.25,-78.75,-37.5,-37.5
212,-26.25,60,-26.25,-60,-45,-86.25,-78.75,-33.75,-32.916666666666664
213,3.75,75,-41.25,-71.25,-60,-97.5,-90,-45,-36.25
214,41.25,93.75,-45,-71.25,-60,-101.25,-93.75,-45,-31.25
215,60,101.25,-48.75,-75,-60,-97.5,-90,-41.25,-27.916666666666668
216,56.25,86.25,-48.75,-75,-56.25,-93.75,-90,-41.25,-29.166666666666668
217,33.75,71.25,-45,-71.25,-52.5,-86.25,-82.5,-33.75,-29.583333333333332
218,45,71.25,-41.25,-71.25,-56.25,-86.25,-78.75,-30,-27.5
219,41.25,60,-41.25,-75,-52.5,-82.5,-75,-30,-28.333333333333332
220,18.75,52.5,-37.5,-78.75,-52.5,-82.5,-75,-33.75,-32.083333333333336
221,15,60,-37.5,-71.25,-48.75,-78.75,-71.25,-33.75,-29.583333333333332
222,-11.25,26.25,-56.25,-86.25,-63.75,-97.5,-90,-52.5,-47.916666666666664
223,-45,-7.5,-67.5,-101.25,-86.25,-116.25,-108.75,-67.5,-66.66666666666667
224,-26.25,15,-56.25,-90,-75,-105,-97.5,-52.5,-54.166666666666664
225,22.5,41.25,-52.5,-78.75,-60,-97.5,-90,-45,-40.0
226,41.25,52.5,-48.75,-82.5,-60,-97.5,-90,-45,-36.666666666666664
227,33.75,60,-48.75,-86.25,-67.5,-97.5,-90,-45,-37.916666666666664
228,22.5,52.5,-60,-93.75,-75,-108.75,-97.5,-48.75,-45.416666666666664
229,-3.75,37.5,-60,-93.75,-75,-108.75,-97.5,-52.5,-50.416666666666664
230,-3.75,41.25,-60,-86.25,-67.5,-97.5,-90,-45,-45.416666666666664
231,18.75,45,-56.25,-90,-67.5,-97.5,-90,-45,-42.5
232,33.75,60,-52.5,-90,-63.75,-97.5,-86.25,-37.5,-37.083333333333336
233,30,67.5,-41.25,-78.75,-52.5,-82.5,-75,-26.25,-28.75
234,33.75,60,-45,-78.75,-56.25,-86.25,-78.75,-33.75,-31.666666666666668
235,18.75,48.75,-48.75,-82.5,-60,-90,-78.75,-37.5,-36.666666666666664
236,7.5,52.5,-52.5,-86.25,-63.75,-93.75,-82.5,-37.5,-39.583333333333336
237,33.75,63.75,-56.25,-90,-67.5,-101.25,-90,-45,-39.166666666666664
238,45,56.25,-63.75,-97.5,-78.75,-108.75,-97.5,-52.5,-44.166666666666664
239,41.25,67.5,-56.25,-93.75,-71.25,-105,-93.75,-45,-39.583333333333336
240,15,78.75,-45,-78.75,-56.25,-90,-78.75,-30,-31.666666666666668
241,-18.75,41.25,-56.25,-90,-67.5,-101.25,-90,-41.25,-47.083333333333336
242,-22.5,0,-82.5,-123.75,-97.5,-127.5,-116.25,-67.5,-70.83333333333333
243,-15,-7.5,-86.25,-131.25,-105,-135,-123.75,-75,-75.41666666666667
244,-3.75,7.5,-71.25,-120,-90,-123.75,-108.75,-63.75,-63.75
245,11.25,33.75,-52.5,-101.25,-75,-105,-93.75,-48.75,-47.916666666666664
246,11.25,45,-45,-93.75,-67.5,-101.25,-90,-41.25,-42.5
247,-7.5,45,-41.25,-90,-63.75,-97.5,-86.25,-37.5,-42.083333333333336
248,-18.75,52.5,-37.5,-78.75,-56.25,-90,-78.75,-30,-37.5
249,-11.25,45,-56.25,-97.5,-75,-108.75,-97.5,-45,-49.583333333333336
250,26.25,48.75,-71.25,-112.5,-93.75,-127.5,-112.5,-56.25,-55.416666666666664
251,48.75,60,-71.25,-112.5,-90,-123.75,-108.75,-56.25,-50.416666666666664
252,7.5,30,-82.5,-120,-97.5,-131.25,-116.25,-63.75,-63.75
253,-15,22.5,-78.75,-116.25,-93.75,-127.5,-112.5,-60,-64.58333333333333
254,-7.5,41.25,-63.75,-105,-82.5,-112.5,-97.5,-45,-52.5
255,-30,18.75,-63.75,-112.5,-90,-116.25,-101.25,-52.5,-60.833333333333336
256,-18.75,11.25,-71.25,-123.75,-97.5,-127.5,-112.5,-63.75,-67.08333333333333
257,-3.75,22.5,-63.75,-116.25,-93.75,-123.75,-112.5,-60,-61.25
258,-15,11.25,-71.25,-120,-97.5,-131.25,-120,-67.5,-67.91666666666667
259,-18.75,11.25,-75,-123.75,-101.25,-142.5,-127.5,-71.25,-72.08333333333333
260,11.25,56.25,-60,-108.75,-86.25,-123.75,-108.75,-52.5,-52.5
261,41.25,93.75,-45,-93.75,-75,-108.75,-90,-37.5,-35.0
262,41.25,75,-63.75,-108.75,-86.25,-116.25,-101.25,-48.75,-45.416666666666664
263,48.75,78.75,-63.75,-108.75,-82.5,-112.5,-97.5,-48.75,-42.916666666666664
264,37.5,67.5,-71.25,-112.5,-90,-116.25,-105,-56.25,-49.583333333333336
265,-33.75,-3.75,-97.5,-135,-112.5,-138.75,-127.5,-75,-80.41666666666667
266,-82.5,-41.25,-97.5,-146.25,-120,-146.25,-135,-82.5,-94.58333333333333
267,-45,-22.5,-93.75,-150,-120,-150,-135,-86.25,-89.16666666666667
268,-7.5,3.75,-90,-142.5,-116.25,-142.5,-131.25,-82.5,-78.75
269,-22.5,15,-75,-131.25,-105,-131.25,-120,-67.5,-70.83333333333333
270,-33.75,7.5,-71.25,-123.75,-101.25,-127.5,-116.25,-67.5,-70.41666666666667
271,-7.5,30,-63.75,-112.5,-90,-120,-105,-56.25,-58.333333333333336
272,11.25,63.75,-52.5,-101.25,-78.75,-108.75,-97.5,-41.25,-45.0
273,0,60,-60,-105,-86.25,-116.25,-105,-48.75,-51.25
274,11.25,52.5,-71.25,-116.25,-97.5,-127.5,-116.25,-60,-58.333333333333336
275,7.5,52.5,-71.25,-120,-101.25,-127.5,-116.25,-60,-59.583333333333336
276,-15,63.75,-56.25,-105,-86.25,-112.5,-97.5,-41.25,-50.0
277,3.75,63.75,-52.5,-105,-82.5,-108.75,-97.5,-41.25,-46.666666666666664
278,33.75,56.25,-60,-108.75,-90,-116.25,-105,-56.25,-49.583333333333336
279,22.5,52.5,-60,-112.5,-90,-120,-108.75,-56.25,-52.5
280,-18.75,37.5,-56.25,-116.25,-93.75,-120,-112.5,-60,-60.0
281,-26.25,37.5,-48.75,-116.25,-97.5,-120,-112.5,-60,-60.416666666666664
282,7.5,82.5,-26.25,-90,-71.25,-101.25,-93.75,-37.5,-36.666666666666664
283,26.25,123.75,-11.25,-67.5,-48.75,-86.25,-75,-22.5,-17.916666666666668
284,30,120,-15,-71.25,-56.25,-93.75,-82.5,-26.25,-21.666666666666668
285,41.25,112.5,-18.75,-75,-63.75,-101.25,-90,-33.75,-25.416666666666668
286,37.5,108.75,-11.25,-71.25,-60,-97.5,-86.25,-33.75,-23.75
287,15,90,-15,-78.75,-63.75,-101.25,-90,-37.5,-31.25
288,22.5,82.5,-18.75,-78.75,-67.5,-101.25,-93.75,-41.25,-32.916666666666664
289,26.25,86.25,-11.25,-67.5,-56.25,-93.75,-82.5,-30,-25.416666666666668
290,15,82.5,-7.5,-67.5,-52.5,-90,-78.75,-30,-25.416666666666668
291,-3.75,71.25,-3.75,-67.5,-52.5,-86.25,-75,-30,-27.5
292,-3.75,67.5,-3.75,-67.5,-56.25,-90,-78.75,-33.75,-29.583333333333332
293,3.75,75,0,-67.5,-56.25,-90,-78.75,-33.75,-27.5
294,7.5,86.25,3.75,-67.5,-52.5,-90,-78.75,-33.75,-25.0
295,-3.75,101.25,11.25,-52.5,-41.25,-78.75,-67.5,-22.5,-17.083333333333332
296,-3.75,120,15,-45,-30,-71.25,-60,-11.25,-9.583333333333334
297,26.25,138.75,7.5,-45,-33.75,-71.25,-56.25,-11.25,-5.0
298,63.75,161.25,-3.75,-52.5,-37.5,-71.25,-60,-7.5,-0.8333333333333334
299,63.75,153.75,-22.5,-63.75,-45,-78.75,-63.75,-11.25,-7.5
300,45,135,-33.75,-67.5,-45,-75,-63.75,-7.5,-12.5
301,56.25,138.75,-45,-71.25,-45,-75,-63.75,-11.25,-12.916666666666666
302,52.5,112.5,-71.25,-90,-60,-86.25,-71.25,-18.75,-25.833333333333332
303,-3.75,60,-90,-105,-71.25,-97.5,-82.5,-26.25,-46.25
304,-18.75,63.75,-82.5,-93.75,-60,-86.25,-71.25,-15,-40.416666666666664
305,37.5,101.25,-78.75,-93.75,-56.25,-78.75,-63.75,-7.5,-26.666666666666668
306,93.75,135,-78.75,-90,-52.5,-75,-60,-3.75,-14.583333333333334
307,108.75,153.75,-78.75,-86.25,-52.5,-71.25,-56.25,0,-9.166666666666666
308,86.25,127.5,-97.5,-105,-71.25,-93.75,-75,-15,-27.083333333333332
309,67.5,97.5,-116.25,-127.5,-93.75,-116.25,-93.75,-30,-45.833333333333336
310,75,105,-108.75,-123.75,-86.25,-108.75,-86.25,-22.5,-39.583333333333336
311,60,105,-97.5,-116.25,-78.75,-101.25,-78.75,-18.75,-36.25
312,15,86.25,-90,-116.25,-82.5,-101.25,-78.75,-15,-42.5
313,41.25,101.25,-90,-123.75,-86.25,-108.75,-86.25,-22.5,-41.666666666666664
314,56.25,86.25,-101.25,-135,-97.5,-120,-101.25,-37.5,-50.0
315,18.75,52.5,-97.5,-135,-101.25,-123.75,-101.25,-41.25,-58.75
316,45,82.5,-75,-116.25,-82.5,-105,-86.25,-26.25,-40.416666666666664
317,63.75,105,-63.75,-105,-71.25,-97.5,-78.75,-18.75,-29.583333333333332
318,26.25,71.25,-78.75,-120,-90,-116.25,-97.5,-37.5,-49.166666666666664
319,-15,45,-82.5,-123.75,-97.5,-120,-105,-45,-60.416666666666664
320,-3.75,60,-78.75,-116.25,-90,-120,-101.25,-41.25,-54.583333333333336
321,15,67.5,-86.25,-127.5,-101.25,-127.5,-108.75,-52.5,-57.916666666666664
322,-3.75,48.75,-90,-138.75,-112.5,-138.75,-116.25,-56.25,-67.5
323,-37.5,22.5,-97.5,-146.25,-112.5,-142.5,-120,-60,-77.08333333333333
324,-45,7.5,-105,-157.5,-123.75,-150,-127.5,-71.25,-85.83333333333333
325,-30,15,-105,-157.5,-127.5,-153.75,-135,-75,-85.41666666666667
326,-22.5,26.25,-97.5,-153.75,-123.75,-153.75,-131.25,-71.25,-80.83333333333333
327,-33.75,7.5,-101.25,-161.25,-131.25,-157.5,-138.75,-82.5,-88.75
328,-18.75,7.5,-101.25,-165,-135,-161.25,-142.5,-86.25,-89.16666666666667
329,-18.75,7.5,-93.75,-157.5,-131.25,-157.5,-142.5,-86.25,-86.66666666666667
330,-11.25,22.5,-82.5,-146.25,-120,-150,-131.25,-75,-77.08333333333333
331,3.75,56.25,-71.25,-135,-108.75,-138.75,-120,-63.75,-64.16666666666667
332,3.75,63.75,-71.25,-131.25,-105,-138.75,-116.25,-63.75,-62.083333333333336
333,18.75,60,-82.5,-138.75,-112.5,-142.5,-123.75,-67.5,-65.41666666666667
334,33.75,71.25,-82.5,-142.5,-116.25,-142.5,-123.75,-67.5,-63.333333333333336
335,-7.5,56.25,-82.5,-142.5,-112.5,-138.75,-120,-63.75,-67.91666666666667
336,-78.75,0,-86.25,-150,-120,-146.25,-127.5,-67.5,-86.25
337,-97.5,-30,-97.5,-161.25,-131.25,-153.75,-135,-82.5,-98.75
338,-67.5,-37.5,-105,-172.5,-138.75,-161.25,-142.5,-90,-101.66666666666667
339,-33.75,-30,-112.5,-180,-150,-176.25,-153.75,-97.5,-103.75
340,-22.5,-3.75,-101.25,-176.25,-142.5,-168.75,-150,-90,-95.0
341,-41.25,0,-93.75,-168.75,-138.75,-165,-142.5,-82.5,-92.5
342,-45,3.75,-90,-168.75,-142.5,-161.25,-135,-78.75,-90.83333333333333
343,-33.75,3.75,-93.75,-165,-142.5,-161.25,-135,-82.5,-90.0
344,-15,7.5,-97.5,-157.5,-135,-157.5,-135,-86.25,-86.25
345,3.75,26.25,-93.75,-153.75,-131.25,-150,-135,-82.5,-79.58333333333333
346,-22.5,37.5,-82.5,-146.25,-123.75,-142.5,-123.75,-71.25,-75.0
347,-33.75,60,-63.75,-131.25,-108.75,-127.5,-108.75,-56.25,-63.333333333333336
348,37.5,97.5,-63.75,-127.5,-105,-127.5,-108.75,-52.5,-50.0
349,63.75,97.5,-75,-138.75,-112.5,-135,-116.25,-60,-52.916666666666664
350,0,41.25,-86.25,-153.75,-123.75,-146.25,-127.5,-75,-74.58333333333333
351,-48.75,-30,-105,-172.5,-146.25,-168.75,-150,-101.25,-102.5
352,-63.75,-52.5,-97.5,-165,-146.25,-172.5,-157.5,-108.75,-107.08333333333333
353,-71.25,-22.5,-48.75,-120,-120,-157.5,-146.25,-97.5,-87.08333333333333
354,-56.25,-26.25,-15,-90,-116.25,-168.75,-165,-123.75,-84.58333333333333
355,-37.5,-41.25,18.75,-56.25,-116.25,-195,-198.75,-157.5,-87.08333333333333
356,-41.25,-30,86.25,3.75,-93.75,-195,-206.25,-165,-71.25
357,-56.25,-60,116.25,30,-97.5,-213.75,-228.75,-191.25,-77.91666666666667
358,-18.75,-60,135,56.25,-93.75,-221.25,-243.75,-206.25,-72.5
359,33.75,-7.5,176.25,123.75,-41.25,-183.75,-213.75,-176.25,-32.083333333333336
360,67.5,63.75,221.25,202.5,26.25,-123.75,-161.25,-127.5,18.75
361,82.5,116.25,255,277.5,93.75,-63.75,-105,-78.75,64.16666666666667
362,112.5,135,262.5,318.75,138.75,-22.5,-67.5,-45,92.5
363,165,165,251.25,337.5,172.5,18.75,-26.25,-7.5,119.58333333333333
364,240,240,262.5,386.25,232.5,90,48.75,63.75,173.75
365,345,341.25,262.5,446.25,311.25,183.75,146.25,157.5,243.75
366,442.5,438.75,236.25,487.5,390,281.25,247.5,255,308.75
367,506.25,558.75,210,517.5,476.25,393.75,371.25,378.75,379.1666666666667
368,570,690,161.25,521.25,555,510,502.5,510,446.6666666666667
369,648.75,825,112.5,540,648.75,645,645,648.75,523.75
370,712.5,986.25,101.25,607.5,776.25,806.25,813.75,810,623.75
371,765,1185,41.25,615,881.25,971.25,997.5,1001.25,717.5
372,817.5,1395,-75,570,963.75,1136.25,1203.75,1218.75,803.3333333333334
373,900,1530,-183.75,510,1027.5,1275,1368.75,1383.75,867.9166666666666
374,960,1552.5,-307.5,378.75,1023.75,1342.5,1458.75,1473.75,875.8333333333334
375,945,1567.5,-393.75,273.75,1035,1417.5,1548.75,1556.25,883.3333333333334
376,885,1545,-386.25,285,1106.25,1503.75,1620,1597.5,906.25
377,806.25,1462.5,-382.5,266.25,1140,1537.5,1627.5,1567.5,891.6666666666666
378,712.5,1406.25,-416.25,180,1132.5,1541.25,1620,1537.5,857.0833333333334
379,611.25,1350,-438.75,67.5,1068.75,1481.25,1552.5,1470,795.8333333333334
380,487.5,1207.5,-442.5,-60,922.5,1308.75,1376.25,1312.5,679.1666666666666
381,315,993.75,-412.5,-157.5,742.5,1061.25,1121.25,1083.75,527.5
382,142.5,795,-390,-277.5,513.75,780,851.25,855,363.3333333333333
383,33.75,637.5,-416.25,-442.5,243.75,487.5,581.25,641.25,196.25
384,-60,491.25,-446.25,-592.5,7.5,236.25,348.75,453.75,48.75
385,-153.75,352.5,-431.25,-656.25,-123.75,75,180,296.25,-51.25
386,-198.75,232.5,-405,-637.5,-165,-11.25,60,161.25,-107.08333333333333
387,-187.5,153.75,-393.75,-607.5,-180,-63.75,-18.75,60,-137.5
388,-172.5,123.75,-393.75,-566.25,-172.5,-75,-41.25,26.25,-141.25
389,-176.25,123.75,-375,-498.75,-135,-48.75,-22.5,37.5,-121.66666666666667
390,-150,120,-356.25,-457.5,-135,-52.5,-18.75,37.5,-112.5
391,-135,101.25,-337.5,-431.25,-157.5,-75,-33.75,26.25,-115.83333333333333
392,-116.25,105,-300,-375,-146.25,-78.75,-33.75,30,-101.66666666666667
393,-71.25,112.5,-281.25,-333.75,-135,-82.5,-37.5,26.25,-89.16666666666667
394,-7.5,123.75,-273.75,-303.75,-127.5,-82.5,-45,18.75,-77.5
395,15,131.25,-243.75,-243.75,-82.5,-52.5,-22.5,30,-52.083333333333336
396,15,138.75,-206.25,-180,-41.25,-22.5,0,48.75,-27.5
397,37.5,157.5,-165,-135,-15,-7.5,7.5,52.5,-7.5
398,41.25,161.25,-131.25,-105,3.75,0,7.5,48.75,2.9166666666666665
399,3.75,127.5,-112.5,-97.5,-3.75,-11.25,-7.5,33.75,-7.5
400,-3.75,108.75,-93.75,-86.25,0,-15,-15,26.25,-8.75
401,37.5,135,-75,-67.5,7.5,-11.25,-7.5,33.75,5.833333333333333
402,48.75,127.5,-75,-71.25,0,-22.5,-22.5,22.5,0.8333333333333334
403,48.75,120,-71.25,-75,-7.5,-30,-26.25,15,-2.9166666666666665
404,71.25,138.75,-63.75,-67.5,-7.5,-30,-26.25,15,3.3333333333333335
405,63.75,120,-75,-75,-22.5,-48.75,-41.25,0,-8.75
406,33.75,82.5,-86.25,-93.75,-45,-71.25,-63.75,-15,-28.75
407,22.5,67.5,-93.75,-101.25,-52.5,-78.75,-71.25,-22.5,-36.666666666666664
408,22.5,78.75,-86.25,-93.75,-48.75,-75,-67.5,-15,-31.666666666666668
409,22.5,90,-71.25,-90,-48.75,-71.25,-60,-11.25,-26.666666666666668
410,30,90,-67.5,-90,-48.75,-71.25,-63.75,-11.25,-25.833333333333332
411,41.25,97.5,-63.75,-82.5,-37.5,-63.75,-60,-11.25,-20.0
412,67.5,120,-52.5,-75,-33.75,-60,-56.25,-7.5,-10.833333333333334
413,60,105,-63.75,-82.5,-45,-71.25,-63.75,-15,-19.583333333333332
414,30,71.25,-71.25,-86.25,-52.5,-78.75,-71.25,-22.5,-31.25
415,45,93.75,-60,-75,-41.25,-67.5,-60,-11.25,-19.583333333333332
416,30,105,-48.75,-60,-33.75,-56.25,-52.5,0,-12.916666666666666
417,-33.75,56.25,-67.5,-78.75,-48.75,-75,-71.25,-15,-37.083333333333336
418,-3.75,52.5,-86.25,-97.5,-67.5,-97.5,-93.75,-33.75,-47.5
419,67.5,97.5,-75,-90,-60,-90,-86.25,-22.5,-28.75
420,67.5,108.75,-67.5,-78.75,-52.5,-82.5,-75,-15,-21.666666666666668
421,56.25,93.75,-75,-86.25,-56.25,-78.75,-71.25,-18.75,-26.25
422,67.5,86.25,-78.75,-90,-52.5,-75,-67.5,-18.75,-25.416666666666668
423,71.25,78.75,-82.5,-93.75,-63.75,-75,-71.25,-22.5,-28.75
424,37.5,75,-71.25,-82.5,-52.5,-67.5,-63.75,-15,-26.666666666666668
425,15,86.25,-60,-67.5,-37.5,-56.25,-52.5,-3.75,-19.583333333333332
426,45,101.25,-56.25,-67.5,-37.5,-60,-56.25,-3.75,-15.0
427,60,108.75,-60,-63.75,-37.5,-60,-56.25,-3.75,-12.5
428,63.75,120,-60,-60,-33.75,-56.25,-52.5,0,-8.75
429,123.75,150,-60,-60,-33.75,-56.25,-48.75,3.75,2.0833333333333335
430,101.25,127.5,-67.5,-67.5,-41.25,-63.75,-56.25,-3.75,-7.916666666666667
431,41.25,86.25,-78.75,-78.75,-48.75,-71.25,-63.75,-7.5,-24.583333333333332
432,22.5,90,-67.5,-67.5,-37.5,-60,-52.5,3.75,-18.75
433,26.25,105,-52.5,-56.25,-26.25,-45,-41.25,15,-8.333333333333334
434,75,108.75,-63.75,-67.5,-37.5,-56.25,-48.75,3.75,-9.583333333333334
435,108.75,112.5,-71.25,-75,-41.25,-60,-56.25,-3.75,-9.583333333333334
436,90,112.5,-56.25,-60,-30,-48.75,-41.25,11.25,-2.5
437,90,123.75,-48.75,-52.5,-22.5,-37.5,-33.75,18.75,4.166666666666667
438,112.5,138.75,-52.5,-52.5,-18.75,-37.5,-33.75,18.75,8.333333333333334
439,116.25,142.5,-48.75,-45,-15,-33.75,-26.25,26.25,12.916666666666666
440,90,123.75,-63.75,-48.75,-18.75,-41.25,-33.75,18.75,2.9166666666666665
441,63.75,101.25,-75,-56.25,-30,-48.75,-41.25,11.25,-8.333333333333334
442,67.5,101.25,-75,-56.25,-30,-45,-41.25,15,-7.083333333333333
443,90,116.25,-75,-60,-30,-41.25,-37.5,18.75,-2.0833333333333335
444,108.75,120,-82.5,-63.75,-33.75,-48.75,-41.25,11.25,-3.3333333333333335
445,105,112.5,-86.25,-67.5,-37.5,-52.5,-48.75,7.5,-7.5
446,78.75,105,-82.5,-60,-30,-45,-41.25,11.25,-7.083333333333333
447,75,120,-67.5,-45,-15,-30,-26.25,26.25,4.166666666666667
448,112.5,157.5,-52.5,-33.75,-3.75,-15,-11.25,41.25,21.666666666666668
449,116.25,161.25,-56.25,-33.75,-3.75,-18.75,-15,41.25,21.25
450,105,142.5,-63.75,-37.5,-7.5,-22.5,-18.75,37.5,15.0
451,123.75,157.5,-60,-30,0,-15,-11.25,41.25,22.916666666666668
452,150,176.25,-60,-26.25,0,-15,-11.25,41.25,28.333333333333332
453,153.75,176.25,-67.5,-30,-3.75,-18.75,-15,37.5,25.833333333333332
454,150,168.75,-67.5,-26.25,0,-15,-11.25,45,27.083333333333332
455,123.75,153.75,-67.5,-26.25,3.75,-11.25,-3.75,52.5,25.0
456,101.25,127.5,-82.5,-37.5,-11.25,-22.5,-15,41.25,11.25
457,123.75,123.75,-86.25,-45,-15,-26.25,-22.5,33.75,9.583333333333334
458,153.75,150,-78.75,-37.5,-7.5,-18.75,-15,41.25,20.833333333333332
459,165,176.25,-67.5,-30,0,-7.5,-3.75,48.75,31.25
460,150,176.25,-60,-18.75,15,3.75,7.5,60,37.083333333333336
461,127.5,153.75,-67.5,-18.75,11.25,0,3.75,60,30.0
462,142.5,161.25,-63.75,-15,15,7.5,11.25,67.5,36.25
463,191.25,217.5,-48.75,7.5,33.75,22.5,30,86.25,60.0
464,191.25,217.5,-56.25,3.75,30,18.75,22.5,82.5,56.666666666666664
465,142.5,157.5,-82.5,-18.75,7.5,-3.75,0,60,29.166666666666668
466,138.75,153.75,-86.25,-22.5,7.5,-3.75,3.75,63.75,28.333333333333332
467,183.75,191.25,-78.75,-15,15,3.75,11.25,67.5,42.083333333333336
468,198.75,195,-78.75,-15,15,7.5,11.25,67.5,44.583333333333336
469,191.25,180,-86.25,-22.5,7.5,0,3.75,63.75,37.5
470,131.25,165,-78.75,-15,18.75,7.5,18.75,75,35.833333333333336
471,86.25,165,-56.25,7.5,37.5,30,41.25,97.5,45.416666666666664
472,142.5,172.5,-71.25,-7.5,22.5,18.75,26.25,82.5,42.916666666666664
473,210,191.25,-86.25,-22.5,7.5,3.75,15,71.25,43.333333333333336
474,206.25,206.25,-75,-7.5,22.5,18.75,26.25,82.5,53.333333333333336
475,183.75,210,-67.5,7.5,37.5,33.75,41.25,93.75,60.0
476,198.75,210,-78.75,0,26.25,22.5,33.75,86.25,55.416666666666664
477,213.75,206.25,-93.75,-15,15,11.25,22.5,82.5,49.166666666666664
478,213.75,206.25,-97.5,-18.75,7.5,11.25,22.5,78.75,47.083333333333336
479,210,206.25,-97.5,-15,11.25,15,26.25,86.25,49.166666666666664
480,228.75,228.75,-90,-7.5,22.5,22.5,37.5,93.75,59.583333333333336
481,206.25,225,-86.25,-7.5,22.5,26.25,41.25,101.25,58.75
482,183.75,195,-97.5,-18.75,11.25,15,33.75,93.75,46.25
483,198.75,183.75,-108.75,-33.75,-3.75,0,18.75,78.75,37.083333333333336
484,198.75,202.5,-97.5,-22.5,3.75,11.25,30,90,46.25
485,210,232.5,-78.75,0,26.25,30,45,105,63.333333333333336
486,240,251.25,-78.75,0,26.25,26.25,41.25,101.25,67.5
487,266.25,281.25,-75,3.75,26.25,26.25,45,108.75,75.83333333333333
488,277.5,288.75,-78.75,7.5,26.25,26.25,48.75,112.5,78.75
489,258.75,251.25,-97.5,-15,7.5,11.25,33.75,97.5,60.833333333333336
490,258.75,232.5,-108.75,-26.25,-3.75,7.5,30,90,53.333333333333336
491,262.5,232.5,-108.75,-26.25,0,11.25,33.75,93.75,55.416666666666664
492,258.75,236.25,-105,-26.25,-3.75,11.25,33.75,93.75,55.416666666666664
493,217.5,210,-105,-30,-7.5,7.5,33.75,93.75,46.666666666666664
494,183.75,183.75,-112.5,-41.25,-18.75,0,22.5,86.25,33.75
495,221.25,210,-108.75,-45,-18.75,0,22.5,86.25,40.833333333333336
496,221.25,217.5,-101.25,-33.75,-15,3.75,30,90,45.833333333333336
497,176.25,191.25,-101.25,-37.5,-18.75,-3.75,22.5,86.25,35.0
498,187.5,206.25,-93.75,-30,-15,-3.75,26.25,93.75,41.25
499,240,255,-82.5,-18.75,-7.5,7.5,37.5,108.75,60.0
500,240,258.75,-86.25,-22.5,-15,0,33.75,105,57.083333333333336
501,221.25,240,-90,-22.5,-15,-3.75,26.25,97.5,50.416666666666664
502,277.5,277.5,-86.25,-22.5,-15,-3.75,26.25,101.25,61.666666666666664
503,303.75,303.75,-75,-15,-11.25,3.75,33.75,108.75,72.5
504,255,273.75,-78.75,-22.5,-18.75,-7.5,22.5,101.25,58.333333333333336
505,221.25,255,-82.5,-26.25,-22.5,-15,15,93.75,48.75
506,213.75,232.5,-86.25,-37.5,-33.75,-26.25,0,78.75,37.916666666666664
507,206.25,206.25,-97.5,-52.5,-48.75,-41.25,-15,60,24.166666666666668
508,183.75,187.5,-97.5,-52.5,-52.5,-45,-18.75,56.25,17.916666666666668
509,202.5,206.25,-90,-45,-48.75,-41.25,-11.25,63.75,26.25
510,232.5,221.25,-82.5,-37.5,-37.5,-33.75,-3.75,71.25,36.666666666666664
511,202.5,213.75,-71.25,-26.25,-30,-22.5,3.75,78.75,38.75
512,210,240,-60,-11.25,-18.75,-15,11.25,86.25,49.166666666666664
513,247.5,262.5,-67.5,-18.75,-30,-22.5,3.75,78.75,50.416666666666664
514,232.5,247.5,-71.25,-26.25,-33.75,-30,-3.75,67.5,42.5
515,206.25,225,-67.5,-22.5,-33.75,-30,-7.5,63.75,37.083333333333336
516,183.75,195,-67.5,-26.25,-37.5,-37.5,-15,56.25,27.916666666666668
517,165,172.5,-67.5,-30,-45,-45,-22.5,45,19.166666666666668
518,165,176.25,-63.75,-33.75,-48.75,-48.75,-26.25,37.5,17.5
519,157.5,168.75,-60,-33.75,-48.75,-48.75,-30,33.75,15.416666666666666
520,138.75,176.25,-41.25,-18.75,-33.75,-37.5,-18.75,45,23.333333333333332
521,146.25,195,-30,-7.5,-26.25,-30,-15,48.75,31.25
522,168.75,210,-22.5,-3.75,-22.5,-30,-15,45,36.666666666666664
523,161.25,213.75,-18.75,-3.75,-22.5,-33.75,-18.75,45,35.833333333333336
524,135,195,-22.5,-3.75,-26.25,-37.5,-22.5,41.25,28.75
525,116.25,157.5,-41.25,-22.5,-41.25,-52.5,-41.25,22.5,10.833333333333334
526,116.25,146.25,-45,-33.75,-48.75,-56.25,-45,15,5.416666666666667
527,123.75,168.75,-30,-18.75,-33.75,-45,-33.75,26.25,17.5
528,127.5,176.25,-26.25,-18.75,-33.75,-41.25,-33.75,26.25,19.583333333333332
529,112.5,150,-37.5,-37.5,-48.75,-56.25,-52.5,7.5,4.166666666666667
530,93.75,127.5,-41.25,-41.25,-60,-63.75,-56.25,0,-4.583333333333333
531,75,101.25,-45,-48.75,-63.75,-67.5,-67.5,-11.25,-14.166666666666666
532,60,108.75,-30,-37.5,-45,-56.25,-56.25,0,-6.25
533,52.5,131.25,-15,-26.25,-37.5,-45,-45,7.5,2.5
534,82.5,135,-15,-30,-41.25,-52.5,-48.75,3.75,3.75
535,78.75,120,-22.5,-33.75,-45,-60,-60,-7.5,-3.3333333333333335
536,41.25,112.5,-22.5,-33.75,-45,-60,-56.25,-3.75,-7.5
537,60,131.25,-15,-30,-37.5,-52.5,-48.75,3.75,1.25
538,105,150,-18.75,-33.75,-41.25,-56.25,-56.25,0,5.416666666666667
539,67.5,112.5,-30,-48.75,-56.25,-71.25,-71.25,-18.75,-12.916666666666666
540,-3.75,63.75,-41.25,-63.75,-71.25,-86.25,-90,-33.75,-36.25
541,7.5,71.25,-33.75,-63.75,-67.5,-82.5,-86.25,-30,-31.666666666666668
542,26.25,75,-33.75,-67.5,-71.25,-86.25,-86.25,-33.75,-30.833333333333332
543,15,63.75,-33.75,-71.25,-75,-86.25,-86.25,-37.5,-34.583333333333336
544,37.5,93.75,-22.5,-60,-60,-75,-78.75,-26.25,-21.25
545,26.25,97.5,-15,-56.25,-56.25,-71.25,-71.25,-26.25,-19.166666666666668
546,-15,60,-26.25,-67.5,-67.5,-82.5,-82.5,-37.5,-35.416666666666664
547,-7.5,56.25,-30,-71.25,-75,-86.25,-86.25,-41.25,-37.916666666666664
548,11.25,75,-26.25,-67.5,-71.25,-82.5,-82.5,-37.5,-31.25
549,18.75,86.25,-30,-75,-75,-82.5,-86.25,-41.25,-31.666666666666668
550,41.25,112.5,-30,-71.25,-67.5,-78.75,-78.75,-33.75,-22.916666666666668
551,52.5,127.5,-22.5,-67.5,-63.75,-71.25,-71.25,-22.5,-15.416666666666666
552,45,123.75,-15,-63.75,-60,-67.5,-67.5,-18.75,-13.75
553,63.75,131.25,-15,-67.5,-60,-71.25,-67.5,-18.75,-11.666666666666666
554,78.75,112.5,-30,-86.25,-75,-82.5,-78.75,-33.75,-21.666666666666668
555,26.25,52.5,-48.75,-108.75,-97.5,-105,-105,-60,-49.583333333333336
556,-33.75,30,-41.25,-105,-93.75,-105,-108.75,-60,-57.5
557,-48.75,30,-37.5,-97.5,-90,-101.25,-105,-56.25,-56.25
558,-52.5,33.75,-33.75,-93.75,-86.25,-101.25,-101.25,-56.25,-54.583333333333336
559,-22.5,63.75,-26.25,-82.5,-75,-90,-90,-45,-40.833333333333336
560,3.75,63.75,-37.5,-93.75,-86.25,-101.25,-101.25,-52.5,-45.0
561,15,67.5,-45,-101.25,-93.75,-105,-105,-60,-47.5
562,7.5,67.5,-37.5,-93.75,-86.25,-101.25,-97.5,-52.5,-43.75
563,15,75,-30,-90,-78.75,-93.75,-90,-45,-37.5
564,33.75,90,-26.25,-86.25,-75,-86.25,-86.25,-41.25,-30.833333333333332
565,33.75,86.25,-30,-90,-78.75,-90,-90,-45,-33.75
566,22.5,71.25,-33.75,-97.5,-86.25,-97.5,-97.5,-52.5,-41.25
567,18.75,71.25,-26.25,-90,-78.75,-90,-90,-45,-36.666666666666664
568,7.5,78.75,-22.5,-82.5,-71.25,-86.25,-86.25,-41.25,-33.75
569,-26.25,45,-33.75,-97.5,-86.25,-97.5,-101.25,-52.5,-50.0
570,-52.5,22.5,-45,-101.25,-90,-105,-105,-60,-59.583333333333336
571,-3.75,78.75,-30,-82.5,-71.25,-90,-90,-45,-37.083333333333336
572,41.25,116.25,-22.5,-78.75,-67.5,-86.25,-86.25,-41.25,-25.0
573,15,82.5,-37.5,-90,-78.75,-97.5,-93.75,-48.75,-38.75
574,-11.25,56.25,-41.25,-90,-78.75,-97.5,-93.75,-45,-44.583333333333336
575,-11.25,60,-33.75,-82.5,-75,-93.75,-93.75,-41.25,-41.25
576,11.25,71.25,-33.75,-82.5,-75,-93.75,-90,-37.5,-36.666666666666664
577,7.5,75,-33.75,-82.5,-75,-86.25,-86.25,-37.5,-35.416666666666664
578,-52.5,60,-18.75,-71.25,-63.75,-71.25,-71.25,-26.25,-35.0
579,-56.25,48.75,-22.5,-78.75,-63.75,-71.25,-75,-30,-38.75
580,11.25,63.75,-30,-82.5,-71.25,-75,-78.75,-41.25,-33.75
581,41.25,82.5,-30,-78.75,-67.5,-78.75,-78.75,-41.25,-27.916666666666668
582,30,90,-26.25,-75,-67.5,-78.75,-78.75,-41.25,-27.5
583,0,97.5,-15,-63.75,-56.25,-67.5,-67.5,-26.25,-22.083333333333332
584,0,101.25,-11.25,-56.25,-45,-60,-60,-18.75,-16.666666666666668
585,30,90,-30,-75,-63.75,-75,-78.75,-37.5,-26.666666666666668
586,52.5,93.75,-33.75,-78.75,-67.5,-78.75,-78.75,-37.5,-25.416666666666668
587,63.75,112.5,-30,-75,-63.75,-71.25,-75,-30,-18.75
588,45,105,-37.5,-82.5,-75,-78.75,-82.5,-37.5,-27.083333333333332
589,18.75,86.25,-41.25,-90,-75,-86.25,-86.25,-45,-35.416666666666664
590,-11.25,63.75,-45,-93.75,-75,-90,-90,-48.75,-43.333333333333336
591,-22.5,71.25,-37.5,-86.25,-71.25,-82.5,-86.25,-45,-40.0
592,-7.5,82.5,-33.75,-86.25,-75,-82.5,-86.25,-45,-37.083333333333336
593,0,67.5,-45,-93.75,-78.75,-90,-93.75,-52.5,-42.916666666666664
594,0,67.5,-45,-86.25,-75,-86.25,-90,-48.75,-40.416666666666664
595,7.5,78.75,-41.25,-78.75,-71.25,-82.5,-86.25,-45,-35.416666666666664
596,-7.5,60,-45,-78.75,-67.5,-82.5,-86.25,-45,-39.166666666666664
597,-7.5,48.75,-52.5,-86.25,-71.25,-82.5,-86.25,-48.75,-42.916666666666664
598,-11.25,48.75,-52.5,-90,-78.75,-86.25,-90,-48.75,-45.416666666666664
599,0,75,-45,-78.75,-71.25,-78.75,-82.5,-37.5,-35.416666666666664
600,26.25,105,-41.25,-71.25,-60,-71.25,-75,-30,-24.166666666666668
601,37.5,105,-45,-78.75,-60,-71.25,-75,-33.75,-24.583333333333332
602,30,90,-41.25,-78.75,-63.75,-71.25,-75,-33.75,-27.083333333333332
603,15,90,-33.75,-71.25,-56.25,-63.75,-71.25,-30,-24.583333333333332
604,26.25,108.75,-26.25,-63.75,-48.75,-56.25,-63.75,-22.5,-16.25
605,41.25,112.5,-30,-67.5,-52.5,-67.5,-71.25,-30,-18.333333333333332
606,26.25,116.25,-26.25,-60,-52.5,-63.75,-67.5,-26.25,-17.083333333333332
607,0,108.75,-26.25,-56.25,-48.75,-63.75,-67.5,-26.25,-20.0
608,18.75,93.75,-45,-75,-63.75,-78.75,-82.5,-37.5,-30.0
609,41.25,90,-56.25,-90,-78.75,-90,-93.75,-48.75,-36.25
610,41.25,93.75,-56.25,-90,-78.75,-86.25,-90,-45,-34.583333333333336
611,48.75,108.75,-52.5,-82.5,-71.25,-78.75,-82.5,-37.5,-27.5
612,33.75,105,-48.75,-78.75,-67.5,-75,-78.75,-37.5,-27.5
613,18.75,93.75,-48.75,-78.75,-67.5,-75,-78.75,-37.5,-30.416666666666668
614,7.5,75,-52.5,-86.25,-71.25,-78.75,-82.5,-41.25,-36.666666666666664
615,0,71.25,-45,-78.75,-63.75,-71.25,-71.25,-33.75,-32.5
616,18.75,93.75,-33.75,-71.25,-60,-63.75,-67.5,-26.25,-23.333333333333332
617,26.25,97.5,-37.5,-75,-60,-71.25,-71.25,-30,-24.583333333333332
618,26.25,101.25,-41.25,-75,-60,-71.25,-71.25,-30,-24.583333333333332
619,41.25,116.25,-41.25,-71.25,-60,-71.25,-67.5,-26.25,-20.0
620,18.75,105,-48.75,-78.75,-63.75,-71.25,-71.25,-30,-26.666666666666668
621,-22.5,82.5,-52.5,-82.5,-67.5,-75,-75,-33.75,-36.25
622,-7.5,101.25,-41.25,-75,-60,-67.5,-67.5,-22.5,-26.666666666666668
623,22.5,112.5,-41.25,-71.25,-60,-63.75,-67.5,-26.25,-21.666666666666668
624,18.75,93.75,-56.25,-86.25,-71.25,-78.75,-78.75,-37.5,-32.916666666666664
625,30,90,-63.75,-97.5,-82.5,-86.25,-90,-48.75,-38.75
626,26.25,82.5,-67.5,-105,-90,-93.75,-93.75,-56.25,-44.166666666666664
627,7.5,82.5,-56.25,-101.25,-86.25,-90,-86.25,-52.5,-42.5
628,-15,67.5,-56.25,-101.25,-86.25,-90,-90,-52.5,-47.083333333333336
629,-37.5,52.5,-56.25,-97.5,-86.25,-90,-90,-56.25,-51.25
630,-3.75,82.5,-48.75,-86.25,-75,-82.5,-82.5,-45,-37.916666666666664
631,45,116.25,-48.75,-86.25,-78.75,-82.5,-82.5,-45,-29.166666666666668
632,33.75,108.75,-56.25,-93.75,-86.25,-90,-86.25,-45,-35.0
633,-18.75,71.25,-67.5,-101.25,-90,-97.5,-97.5,-56.25,-50.833333333333336
634,-15,82.5,-60,-93.75,-82.5,-90,-86.25,-48.75,-43.75
635,26.25,108.75,-56.25,-93.75,-82.5,-82.5,-82.5,-41.25,-33.75
636,30,101.25,-63.75,-101.25,-90,-90,-90,-48.75,-39.166666666666664
637,7.5,71.25,-75,-120,-105,-105,-105,-63.75,-55.0
638,0,52.5,-82.5,-127.5,-116.25,-116.25,-112.5,-71.25,-63.75
639,-3.75,71.25,-60,-108.75,-93.75,-93.75,-93.75,-52.5,-48.333333333333336
640,-33.75,75,-45,-97.5,-82.5,-86.25,-82.5,-41.25,-43.75
641,-7.5,67.5,-60,-108.75,-97.5,-105,-101.25,-56.25,-52.083333333333336
642,52.5,90,-63.75,-116.25,-105,-112.5,-112.5,-63.75,-47.916666666666664
643,41.25,101.25,-60,-108.75,-97.5,-105,-101.25,-52.5,-42.5
644,22.5,90,-67.5,-112.5,-101.25,-105,-97.5,-52.5,-47.083333333333336
645,26.25,90,-71.25,-120,-108.75,-108.75,-105,-63.75,-51.25
646,11.25,90,-63.75,-108.75,-97.5,-93.75,-93.75,-56.25,-45.833333333333336
647,0,82.5,-67.5,-116.25,-101.25,-97.5,-93.75,-56.25,-50.0
648,0,78.75,-67.5,-116.25,-101.25,-101.25,-97.5,-56.25,-51.25
649,37.5,97.5,-60,-116.25,-97.5,-97.5,-93.75,-52.5,-42.5
650,67.5,116.25,-56.25,-112.5,-97.5,-97.5,-93.75,-52.5,-36.25
651,18.75,78.75,-63.75,-123.75,-112.5,-108.75,-105,-63.75,-53.333333333333336
652,-63.75,15,-82.5,-142.5,-131.25,-131.25,-123.75,-82.5,-82.5
653,-75,7.5,-86.25,-142.5,-131.25,-135,-127.5,-86.25,-86.25
654,-37.5,60,-63.75,-116.25,-105,-105,-101.25,-60,-58.75
655,-22.5,108.75,-37.5,-82.5,-75,-75,-71.25,-30,-31.666666666666668
656,-15,101.25,-45,-90,-86.25,-86.25,-82.5,-41.25,-38.333333333333336
657,-3.75,71.25,-71.25,-120,-112.5,-112.5,-108.75,-63.75,-57.916666666666664
658,11.25,75,-75,-127.5,-116.25,-116.25,-112.5,-63.75,-58.333333333333336
659,3.75,82.5,-67.5,-116.25,-108.75,-105,-101.25,-56.25,-52.083333333333336
660,7.5,82.5,-67.5,-120,-112.5,-108.75,-105,-60,-53.75
661,26.25,78.75,-75,-131.25,-120,-116.25,-112.5,-67.5,-57.5
662,3.75,56.25,-75,-131.25,-120,-116.25,-116.25,-71.25,-63.333333333333336
663,-22.5,56.25,-60,-120,-108.75,-105,-105,-60,-58.333333333333336
664,-41.25,71.25,-48.75,-105,-97.5,-93.75,-90,-45,-50.0
665,-63.75,60,-48.75,-101.25,-93.75,-86.25,-86.25,-41.25,-51.25
666,-45,60,-56.25,-105,-97.5,-93.75,-93.75,-48.75,-53.333333333333336
667,22.5,82.5,-67.5,-116.25,-112.5,-112.5,-108.75,-63.75,-52.916666666666664
668,56.25,90,-78.75,-123.75,-120,-120,-120,-67.5,-53.75
669,30,82.5,-75,-123.75,-116.25,-116.25,-116.25,-67.5,-55.833333333333336
670,11.25,90,-63.75,-112.5,-105,-105,-105,-56.25,-49.583333333333336
671,15,101.25,-60,-112.5,-105,-105,-105,-56.25,-47.5
672,18.75,116.25,-45,-97.5,-93.75,-93.75,-93.75,-45,-37.083333333333336
673,3.75,112.5,-41.25,-97.5,-90,-90,-90,-41.25,-37.083333333333336
674,-18.75,86.25,-45,-105,-97.5,-97.5,-97.5,-48.75,-47.083333333333336
675,-33.75,75,-45,-108.75,-101.25,-101.25,-101.25,-56.25,-52.5
676,-33.75,86.25,-33.75,-97.5,-90,-93.75,-93.75,-48.75,-45.0
677,-15,112.5,-18.75,-82.5,-75,-78.75,-78.75,-37.5,-30.416666666666668
678,15,142.5,-7.5,-67.5,-63.75,-67.5,-67.5,-26.25,-15.833333333333334
679,11.25,146.25,-3.75,-60,-60,-63.75,-63.75,-22.5,-12.916666666666666
680,15,138.75,-3.75,-60,-63.75,-71.25,-67.5,-22.5,-15.0
681,48.75,150,3.75,-60,-56.25,-60,-63.75,-18.75,-6.25
682,48.75,146.25,0,-60,-60,-63.75,-63.75,-26.25,-8.75
683,18.75,120,-11.25,-67.5,-71.25,-71.25,-75,-37.5,-21.666666666666668
684,-11.25,97.5,-15,-71.25,-71.25,-78.75,-82.5,-45,-30.833333333333332
685,-7.5,108.75,-3.75,-63.75,-63.75,-71.25,-71.25,-33.75,-22.916666666666668
686,15,120,3.75,-60,-60,-67.5,-67.5,-30,-16.25
687,26.25,127.5,3.75,-56.25,-56.25,-63.75,-67.5,-30,-12.916666666666666
688,48.75,176.25,30,-33.75,-37.5,-45,-45,-11.25,9.166666666666666
689,45,206.25,41.25,-22.5,-26.25,-33.75,-37.5,-3.75,18.75
690,0,172.5,26.25,-33.75,-37.5,-48.75,-48.75,-15,1.6666666666666667
691,0,150,0,-48.75,-52.5,-63.75,-63.75,-22.5,-11.25
692,11.25,150,-15,-56.25,-56.25,-63.75,-60,-18.75,-12.083333333333334
693,0,150,-15,-52.5,-45,-52.5,-48.75,-7.5,-7.916666666666667
694,22.5,161.25,-18.75,-48.75,-41.25,-45,-41.25,-3.75,-1.6666666666666667
695,56.25,161.25,-41.25,-63.75,-48.75,-52.5,-48.75,-7.5,-5.0
696,45,127.5,-71.25,-86.25,-71.25,-71.25,-63.75,-22.5,-23.75
697,48.75,123.75,-82.5,-97.5,-78.75,-75,-67.5,-30,-28.75
698,48.75,135,-78.75,-93.75,-71.25,-67.5,-63.75,-22.5,-23.75
699,18.75,127.5,-67.5,-82.5,-63.75,-60,-56.25,-15,-22.083333333333332
700,15,127.5,-71.25,-86.25,-63.75,-60,-52.5,-15,-22.916666666666668
701,33.75,131.25,-82.5,-101.25,-78.75,-71.25,-63.75,-26.25,-28.75
702,56.25,153.75,-86.25,-105,-82.5,-78.75,-67.5,-22.5,-25.833333333333332
703,63.75,172.5,-82.5,-93.75,-75,-71.25,-60,-15,-17.916666666666668
704,63.75,153.75,-93.75,-105,-90,-86.25,-75,-30,-29.166666666666668
705,75,142.5,-93.75,-116.25,-97.5,-93.75,-78.75,-33.75,-32.916666666666664
706,93.75,161.25,-82.5,-105,-86.25,-78.75,-67.5,-18.75,-20.416666666666668
707,93.75,165,-71.25,-97.5,-78.75,-71.25,-60,-11.25,-14.583333333333334
708,63.75,127.5,-75,-108.75,-86.25,-78.75,-67.5,-22.5,-27.5
709,3.75,56.25,-97.5,-135,-108.75,-105,-97.5,-52.5,-59.583333333333336
710,-7.5,37.5,-101.25,-142.5,-116.25,-112.5,-101.25,-60,-67.08333333333333
711,-7.5,67.5,-82.5,-123.75,-101.25,-93.75,-86.25,-45,-52.5
712,-11.25,97.5,-60,-105,-86.25,-78.75,-71.25,-30,-38.333333333333336
713,3.75,97.5,-60,-108.75,-90,-86.25,-75,-37.5,-39.583333333333336
714,52.5,108.75,-71.25,-120,-101.25,-97.5,-90,-48.75,-40.833333333333336
715,56.25,120,-67.5,-112.5,-97.5,-93.75,-86.25,-41.25,-35.833333333333336
716,30,116.25,-60,-108.75,-93.75,-90,-82.5,-37.5,-36.25
717,18.75,112.5,-63.75,-120,-101.25,-97.5,-86.25,-41.25,-42.083333333333336
718,-7.5,101.25,-63.75,-120,-101.25,-101.25,-90,-41.25,-47.083333333333336
719,-26.25,75,-71.25,-127.5,-112.5,-112.5,-101.25,-52.5,-58.75
720,-41.25,33.75,-93.75,-150,-135,-135,-127.5,-78.75,-80.83333333333333
721,-45,22.5,-97.5,-157.5,-138.75,-138.75,-131.25,-82.5,-85.41666666666667
722,-41.25,30,-86.25,-153.75,-135,-135,-127.5,-78.75,-80.83333333333333
723,-48.75,33.75,-78.75,-150,-135,-135,-127.5,-78.75,-80.0
724,-41.25,37.5,-78.75,-150,-135,-138.75,-127.5,-82.5,-79.58333333333333
725,-30,45,-82.5,-150,-135,-135,-127.5,-82.5,-77.5
726,-3.75,82.5,-78.75,-138.75,-123.75,-123.75,-112.5,-67.5,-62.916666666666664
727,15,120,-63.75,-120,-105,-108.75,-97.5,-52.5,-45.833333333333336
728,-18.75,82.5,-71.25,-131.25,-116.25,-120,-108.75,-60,-60.416666666666664
729,-52.5,26.25,-97.5,-157.5,-138.75,-142.5,-131.25,-82.5,-86.25
730,-33.75,30,-101.25,-161.25,-142.5,-142.5,-131.25,-82.5,-85.0
731,-7.5,60,-90,-150,-131.25,-131.25,-120,-71.25,-71.25
732,-7.5,71.25,-82.5,-142.5,-123.75,-131.25,-120,-63.75,-66.66666666666667
733,-7.5,63.75,-82.5,-146.25,-127.5,-135,-123.75,-67.5,-69.58333333333333
734,-18.75,45,-90,-157.5,-138.75,-142.5,-131.25,-75,-78.75
735,-48.75,26.25,-86.25,-153.75,-138.75,-138.75,-127.5,-78.75,-82.91666666666667
736,-60,18.75,-90,-153.75,-135,-138.75,-127.5,-82.5,-85.41666666666667
737,-67.5,30,-75,-142.5,-123.75,-123.75,-116.25,-71.25,-76.66666666666667
738,-78.75,41.25,-63.75,-127.5,-116.25,-116.25,-105,-56.25,-69.16666666666667
739,-48.75,52.5,-71.25,-131.25,-116.25,-123.75,-112.5,-60,-67.91666666666667
740,3.75,71.25,-78.75,-138.75,-120,-127.5,-116.25,-67.5,-63.75
741,-3.75,67.5,-82.5,-142.5,-127.5,-131.25,-120,-71.25,-67.91666666666667
742,-37.5,37.5,-93.75,-153.75,-135,-138.75,-127.5,-78.75,-80.83333333333333
743,-15,48.75,-97.5,-153.75,-138.75,-142.5,-127.5,-78.75,-78.33333333333333
744,-30,63.75,-78.75,-135,-120,-123.75,-112.5,-63.75,-66.66666666666667
745,-67.5,37.5,-75,-135,-120,-123.75,-112.5,-67.5,-73.75
746,-26.25,33.75,-71.25,-138.75,-127.5,-135,-123.75,-82.5,-74.58333333333333
747,-18.75,37.5,-45,-112.5,-116.25,-135,-131.25,-90,-67.91666666666667
748,-41.25,22.5,-11.25,-75,-108.75,-142.5,-146.25,-108.75,-67.91666666666667
749,-41.25,-3.75,30,-37.5,-101.25,-161.25,-172.5,-138.75,-69.58333333333333
750,-15,0,78.75,7.5,-93.75,-176.25,-195,-161.25,-61.666666666666664
751,-18.75,-3.75,120,41.25,-93.75,-191.25,-213.75,-180,-60.0
752,-30,-11.25,142.5,67.5,-90,-202.5,-228.75,-195,-60.833333333333336
753,-15,22.5,183.75,131.25,-41.25,-165,-198.75,-172.5,-28.333333333333332
754,11.25,71.25,225,206.25,26.25,-108.75,-153.75,-127.5,16.666666666666668
755,71.25,112.5,243.75,266.25,78.75,-63.75,-116.25,-97.5,55.0
756,131.25,150,255,315,131.25,-15,-67.5,-56.25,93.75
757,176.25,187.5,255,348.75,176.25,37.5,-18.75,-11.25,127.91666666666667
758,247.5,255,258.75,386.25,225,97.5,45,48.75,173.75
759,345,356.25,258.75,446.25,300,180,135,131.25,239.16666666666666
760,431.25,457.5,247.5,498.75,386.25,285,243.75,243.75,310.4166666666667
761,483.75,558.75,217.5,525,465,390,356.25,352.5,372.0833333333333
762,543.75,682.5,172.5,532.5,543.75,506.25,487.5,483.75,439.1666666666667
763,641.25,828.75,123.75,547.5,633.75,633.75,626.25,622.5,517.5
764,723.75,1012.5,127.5,630,776.25,806.25,806.25,791.25,630.4166666666666
765,780,1203.75,86.25,656.25,888.75,971.25,990,982.5,728.75
766,810,1383.75,-37.5,600,960,1125,1173.75,1181.25,799.5833333333334
767,885,1530,-153.75,543.75,1023.75,1260,1342.5,1350,864.5833333333334
768,960,1571.25,-273.75,431.25,1031.25,1342.5,1447.5,1455,885.0
769,930,1552.5,-378.75,303.75,1020,1398.75,1526.25,1530,875.8333333333334
770,828.75,1507.5,-382.5,300,1080,1485,1601.25,1575,888.3333333333334
771,765,1462.5,-348.75,326.25,1155,1556.25,1642.5,1582.5,904.5833333333334
772,701.25,1425,-363.75,258.75,1158.75,1575,1650,1567.5,885.8333333333334
773,592.5,1353.75,-393.75,138.75,1087.5,1515,1586.25,1503.75,820.4166666666666
774,476.25,1230,-401.25,18.75,960,1361.25,1428.75,1353.75,714.1666666666666
775,352.5,1057.5,-371.25,-86.25,787.5,1125,1185,1132.5,575.8333333333334
776,198.75,858.75,-348.75,-206.25,566.25,847.5,907.5,900,413.75
777,82.5,705,-363.75,-356.25,315,562.5,645,690,253.33333333333334
778,-18.75,570,-382.5,-506.25,86.25,311.25,416.25,502.5,108.75
779,-105,442.5,-378.75,-588.75,-67.5,138.75,240,345,2.9166666666666665
780,-165,330,-348.75,-577.5,-120,45,116.25,210,-56.666666666666664
781,-180,232.5,-333.75,-547.5,-135,-11.25,33.75,105,-92.91666666666667
782,-172.5,153.75,-356.25,-540,-157.5,-52.5,-18.75,37.5,-122.91666666666667
783,-168.75,123.75,-363.75,-498.75,-142.5,-48.75,-22.5,22.5,-122.08333333333333
784,-157.5,116.25,-356.25,-457.5,-138.75,-48.75,-22.5,18.75,-116.25
785,-161.25,93.75,-337.5,-431.25,-161.25,-71.25,-33.75,15,-120.83333333333333
786,-187.5,90,-296.25,-375,-153.75,-71.25,-30,30,-110.41666666666667
787,-138.75,112.5,-262.5,-322.5,-131.25,-63.75,-22.5,37.5,-87.91666666666667
788,-45,135,-258.75,-292.5,-127.5,-67.5,-30,26.25,-73.33333333333333
789,-11.25,161.25,-236.25,-240,-90,-45,-15,41.25,-48.333333333333336
790,37.5,210,-183.75,-157.5,-30,0,22.5,71.25,-3.3333333333333335
791,75,236.25,-138.75,-101.25,11.25,26.25,41.25,86.25,26.25
792,67.5,221.25,-112.5,-82.5,15,26.25,33.75,75,27.083333333333332
793,63.75,191.25,-105,-82.5,7.5,11.25,15,52.5,17.083333333333332
794,37.5,146.25,-101.25,-86.25,-3.75,-7.5,-3.75,30,1.25
795,11.25,120,-90,-78.75,-3.75,-15,-11.25,18.75,-5.416666666666667
796,18.75,123.75,-78.75,-71.25,-7.5,-18.75,-15,15,-3.75
797,26.25,135,-71.25,-67.5,-11.25,-22.5,-22.5,11.25,-2.5
798,41.25,161.25,-52.5,-52.5,0,-15,-11.25,22.5,10.416666666666666
799,63.75,180,-48.75,-41.25,3.75,-15,-11.25,22.5,17.083333333333332
800,52.5,161.25,-52.5,-52.5,-7.5,-22.5,-18.75,15,8.333333333333334
801,33.75,150,-52.5,-52.5,-15,-30,-22.5,15,2.9166666666666665
802,56.25,161.25,-52.5,-52.5,-18.75,-33.75,-26.25,11.25,5.0
803,52.5,135,-63.75,-71.25,-37.5,-52.5,-45,-7.5,-10.0
804,22.5,86.25,-82.5,-90,-60,-75,-71.25,-30,-33.333333333333336
805,0,63.75,-90,-97.5,-71.25,-86.25,-78.75,-37.5,-44.166666666666664
806,-3.75,67.5,-82.5,-93.75,-67.5,-82.5,-78.75,-33.75,-41.666666666666664
807,7.5,93.75,-60,-75,-48.75,-63.75,-60,-18.75,-25.0
808,26.25,112.5,-48.75,-67.5,-41.25,-56.25,-52.5,-11.25,-15.416666666666666
809,7.5,86.25,-60,-75,-52.5,-71.25,-71.25,-26.25,-29.166666666666668
810,7.5,93.75,-60,-67.5,-48.75,-75,-67.5,-18.75,-26.25
811,37.5,131.25,-52.5,-56.25,-41.25,-63.75,-56.25,-3.75,-11.666666666666666
812,33.75,127.5,-56.25,-63.75,-45,-63.75,-56.25,-7.5,-14.583333333333334
813,52.5,123.75,-60,-67.5,-48.75,-60,-56.25,-11.25,-14.166666666666666
814,75,135,-56.25,-60,-41.25,-48.75,-48.75,-3.75,-5.416666666666667
815,56.25,131.25,-48.75,-52.5,-33.75,-41.25,-41.25,3.75,-2.9166666666666665
816,56.25,116.25,-56.25,-63.75,-41.25,-52.5,-48.75,-3.75,-10.416666666666666
817,63.75,105,-63.75,-75,-52.5,-63.75,-60,-11.25,-17.5
818,15,71.25,-71.25,-82.5,-60,-71.25,-67.5,-22.5,-32.083333333333336
819,-22.5,56.25,-71.25,-78.75,-60,-67.5,-63.75,-22.5,-36.666666666666664
820,15,90,-67.5,-71.25,-56.25,-67.5,-56.25,-15,-25.416666666666668
821,15,93.75,-63.75,-63.75,-45,-60,-56.25,-11.25,-21.25
822,18.75,101.25,-56.25,-48.75,-33.75,-52.5,-45,0,-12.916666666666666
823,78.75,146.25,-45,-33.75,-22.5,-41.25,-33.75,11.25,6.666666666666667
824,97.5,153.75,-52.5,-41.25,-26.25,-45,-37.5,7.5,6.25
825,75,142.5,-56.25,-45,-30,-45,-37.5,7.5,1.25
826,78.75,153.75,-48.75,-37.5,-22.5,-37.5,-30,18.75,8.333333333333334
827,75,135,-63.75,-48.75,-30,-45,-41.25,7.5,-1.25
828,71.25,116.25,-67.5,-52.5,-37.5,-52.5,-45,0,-7.5
829,105,142.5,-60,-45,-30,-45,-37.5,7.5,4.166666666666667
830,108.75,168.75,-41.25,-33.75,-11.25,-26.25,-22.5,22.5,18.333333333333332
831,63.75,165,-26.25,-15,3.75,-7.5,-7.5,41.25,24.166666666666668
832,75,165,-30,-18.75,-3.75,-15,-11.25,33.75,21.666666666666668
833,120,176.25,-45,-30,-15,-26.25,-22.5,22.5,20.0
834,93.75,157.5,-52.5,-30,-18.75,-30,-26.25,18.75,12.5
835,75,146.25,-56.25,-30,-15,-30,-26.25,22.5,9.583333333333334
836,90,150,-63.75,-33.75,-18.75,-30,-26.25,22.5,10.0
837,82.5,135,-67.5,-37.5,-22.5,-33.75,-30,18.75,5.0
838,86.25,138.75,-63.75,-37.5,-22.5,-33.75,-26.25,22.5,7.083333333333333
839,105,157.5,-63.75,-37.5,-18.75,-30,-26.25,26.25,12.5
840,97.5,150,-63.75,-33.75,-15,-26.25,-22.5,30,12.916666666666666
841,90,131.25,-71.25,-41.25,-22.5,-33.75,-30,22.5,5.0
842,101.25,127.5,-75,-41.25,-26.25,-37.5,-33.75,15,3.3333333333333335
843,120,146.25,-67.5,-33.75,-15,-26.25,-22.5,26.25,14.166666666666666
844,131.25,176.25,-52.5,-18.75,-3.75,-11.25,-11.25,41.25,27.916666666666668
845,138.75,187.5,-52.5,-18.75,-3.75,-11.25,-11.25,41.25,30.0
846,116.25,172.5,-63.75,-18.75,-3.75,-18.75,-15,37.5,22.916666666666668
847,86.25,153.75,-67.5,-15,0,-15,-11.25,41.25,19.166666666666668
848,93.75,157.5,-67.5,-15,3.75,-7.5,-3.75,48.75,23.333333333333332
849,120,168.75,-71.25,-15,3.75,-3.75,0,52.5,28.333333333333332
850,138.75,180,-67.5,-15,7.5,0,3.75,56.25,33.75
851,142.5,195,-56.25,0,22.5,15,15,67.5,44.583333333333336
852,120,180,-56.25,0,18.75,11.25,15,67.5,39.583333333333336
853,135,168.75,-63.75,-7.5,11.25,7.5,11.25,60,35.833333333333336
854,168.75,180,-63.75,-11.25,15,7.5,11.25,60,40.833333333333336
855,161.25,183.75,-60,-7.5,15,7.5,15,63.75,42.083333333333336
856,105,157.5,-63.75,-3.75,15,7.5,11.25,60,32.083333333333336
857,105,161.25,-60,0,18.75,7.5,15,63.75,34.583333333333336
858,142.5,195,-56.25,11.25,30,18.75,22.5,75,48.75
859,150,206.25,-56.25,15,33.75,22.5,26.25,82.5,53.333333333333336
860,146.25,195,-67.5,7.5,26.25,18.75,22.5,78.75,47.5
861,138.75,180,-75,0,18.75,15,18.75,75,41.25
862,165,191.25,-78.75,0,22.5,18.75,26.25,82.5,47.5
863,183.75,202.5,-78.75,0,26.25,18.75,26.25,82.5,51.25
864,165,191.25,-78.75,0,26.25,18.75,26.25,82.5,47.916666666666664
865,150,176.25,-78.75,-3.75,22.5,18.75,22.5,78.75,42.916666666666664
866,172.5,187.5,-78.75,-7.5,22.5,18.75,26.25,82.5,47.083333333333336
867,206.25,225,-71.25,3.75,33.75,30,37.5,93.75,62.083333333333336
868,225,247.5,-63.75,11.25,41.25,33.75,45,101.25,71.25
869,225,240,-75,3.75,33.75,26.25,37.5,93.75,65.0
870,217.5,251.25,-67.5,18.75,41.25,37.5,52.5,105,72.91666666666667
871,217.5,270,-60,26.25,48.75,45,56.25,116.25,80.0
872,202.5,236.25,-78.75,11.25,33.75,30,45,101.25,64.58333333333333
873,176.25,187.5,-101.25,-11.25,11.25,11.25,22.5,82.5,42.083333333333336
874,161.25,183.75,-105,-15,7.5,7.5,22.5,82.5,38.333333333333336
875,172.5,213.75,-93.75,-3.75,18.75,18.75,37.5,97.5,51.25
876,191.25,232.5,-82.5,3.75,26.25,30,48.75,105,61.666666666666664
877,183.75,217.5,-93.75,-11.25,11.25,22.5,41.25,101.25,52.5
878,198.75,217.5,-93.75,-11.25,11.25,22.5,41.25,101.25,54.166666666666664
879,232.5,236.25,-90,-3.75,18.75,26.25,45,101.25,62.916666666666664
880,206.25,228.75,-82.5,0,22.5,26.25,48.75,105,61.666666666666664
881,202.5,232.5,-78.75,3.75,26.25,30,52.5,108.75,64.16666666666667
882,262.5,281.25,-71.25,15,33.75,37.5,60,120,82.08333333333333
883,255,270,-78.75,11.25,26.25,30,56.25,116.25,76.25
884,221.25,240,-86.25,0,18.75,22.5,48.75,112.5,64.16666666666667
885,232.5,251.25,-90,0,15,22.5,48.75,112.5,65.83333333333333
886,247.5,258.75,-93.75,-3.75,11.25,18.75,45,112.5,66.25
887,243.75,243.75,-105,-18.75,0,7.5,30,97.5,55.416666666666664
888,240,236.25,-108.75,-26.25,-11.25,-3.75,22.5,90,48.75
889,251.25,255,-97.5,-22.5,-7.5,3.75,30,97.5,56.666666666666664
890,262.5,270,-93.75,-18.75,-7.5,3.75,33.75,105,61.666666666666664
891,247.5,258.75,-86.25,-15,-3.75,7.5,33.75,105,60.833333333333336
892,236.25,247.5,-86.25,-18.75,-3.75,3.75,30,97.5,56.25
893,225,243.75,-86.25,-18.75,-11.25,0,26.25,97.5,52.916666666666664
894,221.25,255,-86.25,-15,-11.25,0,30,101.25,55.0
895,240,270,-86.25,-11.25,-11.25,-7.5,26.25,97.5,57.5
896,232.5,243.75,-97.5,-22.5,-18.75,-18.75,11.25,90,46.666666666666664
897,221.25,225,-97.5,-26.25,-26.25,-18.75,11.25,90,42.083333333333336
898,255,258.75,-82.5,-15,-15,-7.5,30,101.25,58.333333333333336
899,258.75,281.25,-63.75,0,0,11.25,45,116.25,72.08333333333333
900,232.5,273.75,-60,3.75,3.75,15,48.75,116.25,70.41666666666667
901,225,247.5,-71.25,-11.25,-11.25,3.75,33.75,101.25,57.5
902,221.25,217.5,-86.25,-30,-33.75,-18.75,15,78.75,40.416666666666664
903,195,206.25,-82.5,-30,-30,-22.5,7.5,75,35.416666666666664
904,180,210,-67.5,-15,-22.5,-18.75,11.25,78.75,39.583333333333336
905,206.25,232.5,-52.5,-3.75,-11.25,-11.25,18.75,86.25,51.666666666666664
906,217.5,251.25,-45,7.5,-3.75,-3.75,22.5,90,59.583333333333336
907,198.75,243.75,-45,7.5,-7.5,-11.25,18.75,86.25,54.583333333333336
908,195,240,-45,7.5,-7.5,-11.25,15,82.5,52.916666666666664
909,213.75,247.5,-41.25,11.25,-7.5,-7.5,15,82.5,57.083333333333336
910,221.25,251.25,-37.5,11.25,-7.5,-11.25,11.25,75,57.083333333333336
911,206.25,228.75,-45,0,-18.75,-22.5,0,63.75,45.833333333333336
912,168.75,183.75,-56.25,-15,-33.75,-37.5,-18.75,45,26.25
913,138.75,161.25,-52.5,-15,-33.75,-41.25,-22.5,37.5,19.166666666666668
914,108.75,150,-41.25,-11.25,-30,-37.5,-22.5,37.5,17.083333333333332
915,86.25,150,-30,-3.75,-22.5,-30,-18.75,37.5,18.75
916,97.5,168.75,-18.75,3.75,-18.75,-26.25,-15,41.25,25.833333333333332
917,135,180,-18.75,3.75,-18.75,-30,-18.75,33.75,29.583333333333332
918,168.75,198.75,-18.75,7.5,-15,-33.75,-22.5,30,35.0
919,161.25,210,-11.25,15,-7.5,-26.25,-15,37.5,40.416666666666664
920,120,180,-18.75,3.75,-18.75,-33.75,-26.25,30,26.25
921,101.25,157.5,-22.5,0,-22.5,-37.5,-30,26.25,19.166666666666668
922,97.5,150,-18.75,0,-22.5,-37.5,-33.75,22.5,17.5
923,86.25,142.5,-22.5,-3.75,-26.25,-45,-37.5,18.75,12.5
924,63.75,153.75,-3.75,7.5,-11.25,-26.25,-22.5,30,21.25
925,52.5,142.5,0,3.75,-15,-26.25,-22.5,22.5,17.5
926,56.25,105,-18.75,-22.5,-37.5,-52.5,-48.75,-3.75,-2.5
927,82.5,120,-15,-18.75,-37.5,-52.5,-48.75,-3.75,2.9166666666666665
928,93.75,146.25,-3.75,-7.5,-26.25,-45,-41.25,3.75,13.333333333333334
929,41.25,123.75,0,-3.75,-22.5,-41.25,-41.25,3.75,6.666666666666667
930,18.75,116.25,0,-3.75,-22.5,-45,-45,0,2.0833333333333335
931,41.25,112.5,-11.25,-15,-37.5,-60,-60,-15,-5.0
932,48.75,105,-18.75,-26.25,-45,-63.75,-67.5,-22.5,-10.0
933,48.75,112.5,-15,-26.25,-41.25,-60,-63.75,-18.75,-7.083333333333333
934,63.75,120,-15,-30,-41.25,-56.25,-60,-15,-3.75
935,75,131.25,-7.5,-26.25,-37.5,-56.25,-60,-15,0.4166666666666667
936,67.5,135,3.75,-18.75,-30,-48.75,-52.5,-11.25,5.0
937,48.75,112.5,-3.75,-30,-37.5,-56.25,-63.75,-18.75,-5.416666666666667
938,22.5,86.25,-11.25,-37.5,-45,-63.75,-67.5,-26.25,-15.833333333333334
939,11.25,90,-3.75,-37.5,-41.25,-60,-67.5,-26.25,-15.0
940,26.25,93.75,-11.25,-41.25,-45,-67.5,-71.25,-30,-16.25
941,30,93.75,-7.5,-37.5,-41.25,-63.75,-67.5,-26.25,-13.333333333333334
942,-7.5,90,0,-30,-33.75,-60,-63.75,-22.5,-14.166666666666666
943,-30,78.75,-7.5,-37.5,-45,-67.5,-71.25,-26.25,-22.916666666666668
944,37.5,97.5,-18.75,-52.5,-60,-82.5,-82.5,-37.5,-22.083333333333332
945,67.5,123.75,-11.25,-48.75,-52.5,-75,-78.75,-33.75,-12.083333333333334
946,45,127.5,-3.75,-41.25,-45,-63.75,-71.25,-26.25,-8.75
947,30,112.5,-7.5,-48.75,-48.75,-71.25,-78.75,-30,-15.833333333333334
948,3.75,78.75,-26.25,-67.5,-67.5,-97.5,-101.25,-48.75,-36.25
949,-22.5,52.5,-33.75,-82.5,-82.5,-108.75,-108.75,-60,-49.583333333333336
950,-30,48.75,-30,-78.75,-82.5,-101.25,-105,-56.25,-48.333333333333336
951,-26.25,52.5,-22.5,-71.25,-71.25,-90,-93.75,-52.5,-41.666666666666664
952,-41.25,41.25,-15,-67.5,-67.5,-90,-93.75,-56.25,-43.333333333333336
953,-63.75,26.25,-18.75,-71.25,-75,-97.5,-101.25,-63.75,-51.666666666666664
954,-52.5,41.25,-15,-63.75,-63.75,-86.25,-90,-48.75,-42.083333333333336
955,-18.75,71.25,-7.5,-56.25,-52.5,-75,-78.75,-37.5,-28.333333333333332
956,-18.75,60,-15,-60,-60,-78.75,-82.5,-41.25,-32.916666666666664
957,-18.75,52.5,-18.75,-63.75,-63.75,-82.5,-82.5,-41.25,-35.416666666666664
958,22.5,90,-11.25,-56.25,-52.5,-71.25,-71.25,-30,-20.0
959,37.5,108.75,-3.75,-48.75,-45,-63.75,-67.5,-26.25,-12.083333333333334
960,15,86.25,-7.5,-56.25,-52.5,-67.5,-71.25,-33.75,-20.833333333333332
961,-7.5,60,-11.25,-63.75,-60,-75,-78.75,-45,-31.25
962,-11.25,52.5,-15,-63.75,-60,-75,-78.75,-45,-32.916666666666664
963,-22.5,52.5,-11.25,-60,-56.25,-75,-78.75,-45,-32.916666666666664
964,-26.25,52.5,-15,-63.75,-63.75,-82.5,-82.5,-48.75,-36.666666666666664
965,-15,63.75,-15,-60,-60,-78.75,-82.5,-48.75,-32.916666666666664
966,-15,78.75,-7.5,-48.75,-45,-71.25,-75,-37.5,-24.583333333333332
967,-22.5,82.5,-7.5,-45,-41.25,-71.25,-71.25,-37.5,-23.75
968,-11.25,82.5,-15,-52.5,-48.75,-78.75,-78.75,-45,-27.5
969,3.75,86.25,-15,-52.5,-52.5,-75,-78.75,-41.25,-25.0
970,-7.5,78.75,-18.75,-60,-56.25,-78.75,-82.5,-45,-30.0
971,-33.75,78.75,-11.25,-48.75,-45,-67.5,-71.25,-33.75,-25.833333333333332
972,-48.75,75,-3.75,-45,-37.5,-60,-63.75,-30,-23.75
973,-15,63.75,-15,-56.25,-48.75,-71.25,-78.75,-45,-29.583333333333332
974,45,97.5,-11.25,-52.5,-45,-67.5,-75,-45,-17.083333333333332
975,48.75,123.75,0,-37.5,-33.75,-56.25,-63.75,-30,-5.416666666666667
976,-26.25,90,7.5,-30,-26.25,-52.5,-56.25,-26.25,-13.333333333333334
977,-60,71.25,3.75,-30,-26.25,-52.5,-56.25,-26.25,-19.583333333333332
978,22.5,116.25,0,-33.75,-30,-56.25,-60,-30,-7.916666666666667
979,67.5,123.75,-7.5,-41.25,-37.5,-63.75,-67.5,-37.5,-7.083333333333333
980,37.5,105,-11.25,-45,-41.25,-67.5,-75,-37.5,-15.0
981,22.5,120,0,-33.75,-33.75,-56.25,-63.75,-26.25,-7.916666666666667
982,11.25,105,-15,-45,-41.25,-63.75,-71.25,-37.5,-17.5
983,11.25,75,-33.75,-63.75,-60,-82.5,-90,-56.25,-33.333333333333336
984,-7.5,60,-33.75,-63.75,-60,-82.5,-90,-60,-37.5
985,-63.75,33.75,-26.25,-60,-52.5,-75,-82.5,-48.75,-41.666666666666664
986,-52.5,37.5,-22.5,-60,-52.5,-75,-78.75,-48.75,-39.166666666666664
987,7.5,82.5,-11.25,-52.5,-45,-67.5,-75,-45,-22.916666666666668
988,-3.75,90,-11.25,-45,-41.25,-63.75,-75,-41.25,-21.25
989,-26.25,71.25,-15,-45,-45,-71.25,-78.75,-48.75,-28.75
990,-15,75,-22.5,-52.5,-48.75,-78.75,-86.25,-48.75,-30.833333333333332
991,3.75,90,-18.75,-48.75,-45,-71.25,-78.75,-41.25,-23.333333333333332
992,7.5,86.25,-22.5,-52.5,-48.75,-75,-78.75,-45,-25.416666666666668
993,7.5,101.25,-15,-41.25,-37.5,-60,-67.5,-33.75,-16.25
994,11.25,112.5,-7.5,-37.5,-33.75,-52.5,-60,-22.5,-10.0
995,0,93.75,-15,-48.75,-45,-63.75,-67.5,-30,-19.583333333333332
996,-22.5,78.75,-15,-48.75,-41.25,-63.75,-67.5,-26.25,-22.916666666666668
997,-15,82.5,-11.25,-45,-37.5,-60,-63.75,-26.25,-19.583333333333332
998,15,86.25,-18.75,-56.25,-45,-67.5,-71.25,-33.75,-21.25
999,7.5,86.25,-18.75,-56.25,-48.75,-67.5,-71.25,-33.75,-22.5
1000,-3.75,97.5,-7.5,-41.25,-33.75,-56.25,-60,-22.5,-14.166666666666666
1001,11.25,123.75,7.5,-26.25,-15,-41.25,-45,-3.75,1.25
1002,7.5,123.75,3.75,-26.25,-18.75,-45,-48.75,-7.5,-1.25
1003,3.75,97.5,-11.25,-41.25,-33.75,-60,-60,-22.5,-14.166666666666666
1004,3.75,82.5,-26.25,-56.25,-48.75,-71.25,-71.25,-33.75,-24.583333333333332
1005,-7.5,75,-33.75,-63.75,-52.5,-75,-75,-45,-30.833333333333332
1006,0,82.5,-30,-60,-52.5,-71.25,-75,-56.25,-29.166666666666668
1007,11.25,101.25,-18.75,-48.75,-41.25,-63.75,-67.5,-56.25,-20.416666666666668
1008,-3.75,86.25,-22.5,-56.25,-48.75,-71.25,-82.5,-60,-28.75
1009,-11.25,67.5,-22.5,-60,-52.5,-75,-86.25,-48.75,-32.083333333333336
1010,-18.75,60,-22.5,-63.75,-52.5,-75,-82.5,-48.75,-33.75
1011,-26.25,63.75,-18.75,-60,-52.5,-71.25,-78.75,-48.75,-32.5
1012,-30,63.75,-18.75,-56.25,-48.75,-71.25,-75,-45,-31.25
1013,-7.5,86.25,-11.25,-45,-41.25,-63.75,-71.25,-37.5,-21.25
1014,37.5,135,-3.75,-33.75,-30,-52.5,-60,-26.25,-3.75
1015,45,138.75,-7.5,-41.25,-37.5,-56.25,-63.75,-26.25,-5.416666666666667
1016,15,108.75,-18.75,-52.5,-45,-67.5,-71.25,-37.5,-18.75
1017,-7.5,90,-30,-63.75,-56.25,-75,-78.75,-41.25,-29.166666666666668
1018,-3.75,97.5,-26.25,-60,-52.5,-71.25,-75,-37.5,-25.416666666666668
1019,7.5,105,-22.5,-60,-48.75,-67.5,-75,-37.5,-22.083333333333332
1020,26.25,112.5,-26.25,-63.75,-56.25,-75,-82.5,-41.25,-22.916666666666668
1021,37.5,116.25,-22.5,-67.5,-56.25,-75,-82.5,-41.25,-21.25
1022,7.5,86.25,-33.75,-78.75,-67.5,-86.25,-90,-52.5,-35.0
1023,-18.75,63.75,-33.75,-78.75,-71.25,-90,-93.75,-56.25,-42.083333333333336
1024,-11.25,63.75,-37.5,-78.75,-71.25,-93.75,-97.5,-60,-42.916666666666664
1025,-7.5,67.5,-37.5,-75,-71.25,-93.75,-97.5,-60,-41.666666666666664
1026,-11.25,78.75,-33.75,-75,-67.5,-93.75,-97.5,-56.25,-39.583333333333336
1027,-11.25,78.75,-37.5,-78.75,-71.25,-93.75,-97.5,-56.25,-40.833333333333336
1028,-18.75,75,-33.75,-75,-63.75,-86.25,-90,-48.75,-37.916666666666664
1029,-33.75,93.75,-18.75,-60,-52.5,-71.25,-75,-30,-27.5
1030,-22.5,93.75,-30,-67.5,-60,-78.75,-86.25,-41.25,-32.5
1031,7.5,82.5,-45,-90,-78.75,-97.5,-101.25,-60,-42.5
1032,0,67.5,-48.75,-93.75,-82.5,-101.25,-101.25,-63.75,-47.083333333333336
1033,-22.5,56.25,-45,-90,-78.75,-97.5,-97.5,-56.25,-47.916666666666664
1034,-18.75,63.75,-37.5,-90,-78.75,-93.75,-93.75,-56.25,-45.0
1035,-18.75,56.25,-41.25,-97.5,-82.5,-101.25,-101.25,-63.75,-50.0
1036,-33.75,48.75,-45,-93.75,-82.5,-105,-105,-67.5,-53.75
1037,-26.25,71.25,-33.75,-78.75,-71.25,-93.75,-93.75,-56.25,-42.5
1038,-15,90,-33.75,-75,-67.5,-90,-90,-52.5,-37.083333333333336
1039,-26.25,75,-41.25,-86.25,-78.75,-101.25,-101.25,-56.25,-46.25
1040,-11.25,78.75,-37.5,-86.25,-75,-97.5,-93.75,-52.5,-41.666666666666664
1041,3.75,93.75,-33.75,-78.75,-71.25,-90,-90,-48.75,-35.0
1042,0,97.5,-33.75,-78.75,-71.25,-90,-86.25,-45,-34.166666666666664
1043,-3.75,78.75,-41.25,-90,-82.5,-101.25,-101.25,-56.25,-44.166666666666664
1044,15,75,-45,-101.25,-90,-112.5,-112.5,-63.75,-48.333333333333336
1045,7.5,67.5,-45,-101.25,-93.75,-116.25,-116.25,-67.5,-51.666666666666664
1046,-22.5,41.25,-45,-105,-97.5,-120,-116.25,-71.25,-59.583333333333336
1047,-41.25,30,-48.75,-108.75,-97.5,-120,-116.25,-75,-64.16666666666667
1048,-37.5,60,-33.75,-93.75,-82.5,-101.25,-97.5,-60,-49.583333333333336
1049,-22.5,101.25,-15,-67.5,-60,-75,-71.25,-33.75,-27.083333333333332
1050,-3.75,123.75,-11.25,-63.75,-56.25,-75,-71.25,-33.75,-21.25
1051,15,112.5,-30,-82.5,-71.25,-93.75,-93.75,-52.5,-32.916666666666664
1052,11.25,86.25,-45,-101.25,-90,-112.5,-108.75,-67.5,-47.5
1053,15,90,-45,-101.25,-90,-112.5,-108.75,-67.5,-46.666666666666664
1054,7.5,93.75,-33.75,-90,-78.75,-101.25,-97.5,-56.25,-39.583333333333336
1055,-18.75,75,-37.5,-93.75,-82.5,-105,-101.25,-56.25,-46.666666666666664
1056,-52.5,33.75,-52.5,-112.5,-101.25,-120,-116.25,-75,-66.25
1057,-60,15,-52.5,-116.25,-105,-123.75,-120,-78.75,-71.25
1058,-37.5,37.5,-45,-105,-93.75,-116.25,-112.5,-71.25,-60.416666666666664
1059,-22.5,60,-41.25,-101.25,-93.75,-116.25,-108.75,-71.25,-55.0
1060,-30,56.25,-45,-101.25,-93.75,-120,-112.5,-75,-57.916666666666664
1061,-45,48.75,-45,-101.25,-93.75,-123.75,-116.25,-78.75,-61.666666666666664
1062,-18.75,78.75,-37.5,-93.75,-86.25,-116.25,-108.75,-71.25,-50.416666666666664
1063,11.25,101.25,-33.75,-90,-82.5,-112.5,-105,-63.75,-41.666666666666664
1064,-15,78.75,-41.25,-101.25,-93.75,-120,-112.5,-71.25,-52.916666666666664
1065,-56.25,48.75,-48.75,-105,-97.5,-123.75,-116.25,-75,-63.75
1066,-52.5,52.5,-45,-97.5,-90,-116.25,-108.75,-71.25,-58.75
1067,-30,60,-48.75,-105,-93.75,-123.75,-112.5,-71.25,-58.333333333333336
1068,-33.75,56.25,-48.75,-105,-97.5,-120,-112.5,-71.25,-59.166666666666664
1069,-41.25,48.75,-45,-108.75,-97.5,-123.75,-112.5,-71.25,-61.25
1070,-15,60,-45,-108.75,-97.5,-123.75,-112.5,-71.25,-57.083333333333336
1071,0,78.75,-41.25,-97.5,-90,-120,-108.75,-67.5,-49.583333333333336
1072,-3.75,75,-33.75,-93.75,-86.25,-116.25,-105,-67.5,-47.916666666666664
1073,-7.5,78.75,-22.5,-78.75,-75,-105,-97.5,-56.25,-40.416666666666664
1074,0,97.5,-18.75,-75,-71.25,-101.25,-93.75,-48.75,-34.583333333333336
1075,3.75,93.75,-33.75,-86.25,-82.5,-116.25,-105,-60,-42.916666666666664
1076,-15,67.5,-45,-101.25,-97.5,-127.5,-116.25,-71.25,-56.25
1077,-41.25,56.25,-48.75,-101.25,-97.5,-127.5,-116.25,-71.25,-60.833333333333336
1078,-11.25,93.75,-33.75,-86.25,-82.5,-112.5,-105,-56.25,-43.75
1079,33.75,123.75,-22.5,-78.75,-75,-105,-97.5,-48.75,-30.0
1080,26.25,108.75,-22.5,-82.5,-78.75,-108.75,-97.5,-52.5,-34.166666666666664
1081,3.75,90,-18.75,-82.5,-78.75,-105,-97.5,-56.25,-38.333333333333336
1082,-33.75,63.75,-15,-78.75,-75,-105,-101.25,-60,-45.0
1083,-71.25,45,-11.25,-78.75,-75,-108.75,-101.25,-60,-51.25
1084,-56.25,86.25,11.25,-60,-52.5,-86.25,-82.5,-41.25,-31.25
1085,15,161.25,37.5,-30,-30,-63.75,-56.25,-18.75,1.6666666666666667
1086,75,206.25,45,-15,-18.75,-56.25,-48.75,-7.5,20.0
1087,63.75,187.5,30,-30,-33.75,-67.5,-60,-22.5,7.5
1088,-3.75,131.25,22.5,-41.25,-41.25,-78.75,-71.25,-33.75,-12.916666666666666
1089,-45,78.75,7.5,-52.5,-56.25,-90,-86.25,-48.75,-32.5
1090,-33.75,71.25,3.75,-56.25,-63.75,-97.5,-90,-52.5,-35.416666666666664
1091,-26.25,78.75,11.25,-48.75,-52.5,-86.25,-82.5,-45,-27.916666666666668
1092,-3.75,93.75,22.5,-41.25,-45,-78.75,-78.75,-41.25,-19.166666666666668
1093,3.75,101.25,30,-37.5,-45,-78.75,-75,-41.25,-15.833333333333334
1094,-22.5,97.5,37.5,-37.5,-41.25,-71.25,-67.5,-33.75,-15.416666666666666
1095,-26.25,108.75,41.25,-33.75,-41.25,-67.5,-63.75,-30,-12.5
1096,-11.25,131.25,48.75,-18.75,-26.25,-56.25,-56.25,-22.5,-1.25
1097,-3.75,146.25,52.5,-7.5,-11.25,-48.75,-45,-11.25,7.916666666666667
1098,7.5,168.75,48.75,-3.75,-11.25,-45,-41.25,-3.75,13.333333333333334
1099,22.5,183.75,33.75,-15,-15,-48.75,-41.25,-3.75,12.916666666666666
1100,41.25,187.5,22.5,-18.75,-15,-41.25,-37.5,0,15.416666666666666
1101,56.25,183.75,7.5,-18.75,-11.25,-41.25,-37.5,0,15.416666666666666
1102,63.75,172.5,-11.25,-30,-22.5,-48.75,-41.25,-3.75,8.75
1103,67.5,153.75,-41.25,-56.25,-41.25,-67.5,-60,-18.75,-7.083333333333333
1104,41.25,138.75,-41.25,-56.25,-41.25,-67.5,-60,-18.75,-11.666666666666666
1105,56.25,157.5,-30,-45,-30,-56.25,-48.75,-7.5,-0.4166666666666667
1106,108.75,195,-18.75,-33.75,-22.5,-45,-37.5,3.75,16.666666666666668
1107,90,165,-37.5,-52.5,-37.5,-60,-48.75,-7.5,1.25
1108,0,78.75,-71.25,-86.25,-71.25,-90,-75,-33.75,-38.75
1109,-26.25,71.25,-75,-90,-75,-93.75,-82.5,-37.5,-45.416666666666664
1110,11.25,116.25,-60,-82.5,-67.5,-90,-75,-26.25,-30.416666666666668
1111,26.25,116.25,-60,-86.25,-71.25,-97.5,-82.5,-37.5,-32.5
1112,15,101.25,-67.5,-97.5,-82.5,-108.75,-97.5,-48.75,-42.916666666666664
1113,26.25,112.5,-63.75,-101.25,-86.25,-108.75,-97.5,-48.75,-40.833333333333336
1114,41.25,112.5,-63.75,-97.5,-82.5,-112.5,-101.25,-48.75,-39.166666666666664
1115,22.5,86.25,-63.75,-101.25,-90,-116.25,-108.75,-56.25,-47.5
1116,11.25,71.25,-67.5,-116.25,-101.25,-123.75,-112.5,-60,-55.416666666666664
1117,15,75,-56.25,-108.75,-93.75,-112.5,-101.25,-52.5,-48.333333333333336
1118,30,97.5,-37.5,-86.25,-67.5,-93.75,-82.5,-30,-30.0
1119,26.25,112.5,-22.5,-75,-60,-86.25,-71.25,-26.25,-22.5
1120,-3.75,97.5,-33.75,-86.25,-75,-97.5,-86.25,-45,-36.666666666666664
1121,-7.5,90,-41.25,-90,-78.75,-105,-93.75,-52.5,-42.083333333333336
1122,-11.25,86.25,-45,-86.25,-78.75,-108.75,-97.5,-52.5,-43.75
1123,-15,78.75,-48.75,-97.5,-90,-120,-108.75,-63.75,-51.666666666666664
1124,-22.5,71.25,-52.5,-105,-97.5,-127.5,-116.25,-67.5,-57.5
1125,-30,56.25,-60,-116.25,-108.75,-135,-123.75,-75,-65.83333333333333
1126,-26.25,52.5,-56.25,-116.25,-105,-135,-120,-71.25,-64.16666666666667
1127,-7.5,63.75,-48.75,-105,-97.5,-123.75,-112.5,-67.5,-55.416666666666664
1128,-3.75,67.5,-45,-105,-97.5,-123.75,-112.5,-67.5,-54.166666666666664
1129,-41.25,48.75,-45,-108.75,-97.5,-123.75,-112.5,-67.5,-60.833333333333336
1130,-71.25,18.75,-56.25,-123.75,-112.5,-138.75,-131.25,-82.5,-77.5
1131,-45,26.25,-60,-131.25,-120,-146.25,-135,-93.75,-78.33333333333333
1132,-33.75,45,-52.5,-116.25,-108.75,-135,-123.75,-82.5,-67.5
1133,-60,48.75,-45,-101.25,-93.75,-123.75,-112.5,-67.5,-61.666666666666664
1134,-63.75,63.75,-33.75,-90,-82.5,-116.25,-105,-56.25,-53.75
1135,-41.25,56.25,-52.5,-108.75,-101.25,-131.25,-120,-71.25,-63.333333333333336
1136,-30,26.25,-75,-131.25,-123.75,-150,-138.75,-93.75,-79.58333333333333
1137,-33.75,22.5,-75,-131.25,-123.75,-150,-138.75,-93.75,-80.41666666666667
1138,-30,45,-60,-120,-112.5,-138.75,-127.5,-82.5,-69.58333333333333
1139,-22.5,60,-52.5,-112.5,-105,-127.5,-120,-75,-61.666666666666664
1140,-7.5,71.25,-48.75,-112.5,-101.25,-127.5,-120,-75,-57.916666666666664
1141,-22.5,52.5,-52.5,-123.75,-112.5,-138.75,-127.5,-86.25,-67.91666666666667
1142,-56.25,22.5,-56.25,-123.75,-116.25,-142.5,-135,-86.25,-77.08333333333333
1143,-41.25,30,-52.5,-120,-108.75,-142.5,-131.25,-82.5,-72.08333333333333
1144,-33.75,41.25,-45,-112.5,-101.25,-138.75,-127.5,-75,-65.83333333333333
1145,-71.25,30,-41.25,-108.75,-101.25,-131.25,-120,-71.25,-68.33333333333333
1146,-78.75,26.25,-45,-108.75,-105,-135,-123.75,-75,-71.66666666666667
1147,-45,41.25,-52.5,-108.75,-101.25,-135,-123.75,-78.75,-67.08333333333333
1148,-15,63.75,-48.75,-108.75,-101.25,-127.5,-120,-75,-59.166666666666664
1149,-37.5,52.5,-52.5,-112.5,-105,-131.25,-123.75,-78.75,-65.41666666666667
1150,-60,41.25,-56.25,-116.25,-105,-131.25,-127.5,-82.5,-70.83333333333333
1151,-37.5,56.25,-48.75,-108.75,-97.5,-127.5,-116.25,-71.25,-61.25
1152,-37.5,33.75,-45,-112.5,-105,-131.25,-123.75,-82.5,-67.08333333333333
1153,-60,-7.5,-45,-116.25,-112.5,-146.25,-138.75,-101.25,-80.83333333333333
1154,-67.5,-26.25,-30,-101.25,-116.25,-157.5,-157.5,-116.25,-85.83333333333333
1155,-86.25,-41.25,7.5,-63.75,-105,-165,-172.5,-138.75,-85.0
1156,-93.75,-45,60,-15,-90,-172.5,-187.5,-161.25,-78.33333333333333
1157,-71.25,-37.5,120,37.5,-78.75,-180,-202.5,-176.25,-65.41666666666667
1158,-33.75,-30,157.5,75,-75,-195,-221.25,-195,-57.5
1159,0,-15,183.75,112.5,-52.5,-191.25,-221.25,-198.75,-42.5
1160,22.5,15,213.75,165,-15,-165,-206.25,-183.75,-17.083333333333332
1161,41.25,67.5,255,240,52.5,-108.75,-157.5,-138.75,27.916666666666668
1162,67.5,112.5,281.25,311.25,112.5,-56.25,-112.5,-97.5,68.75
1163,123.75,157.5,288.75,356.25,161.25,-11.25,-63.75,-56.25,106.25
1164,198.75,225,296.25,393.75,213.75,48.75,-7.5,0,152.08333333333334
1165,255,285,300,435,270,116.25,63.75,67.5,199.16666666666666
1166,307.5,337.5,288.75,480,333.75,195,150,146.25,248.75
1167,405,442.5,266.25,525,416.25,296.25,251.25,247.5,316.6666666666667
1168,480,558.75,232.5,543.75,487.5,397.5,363.75,356.25,380.0
1169,558.75,686.25,183.75,551.25,566.25,513.75,495,487.5,449.1666666666667
1170,633.75,840,157.5,592.5,678.75,660,656.25,645,540.4166666666666
1171,663.75,986.25,146.25,656.25,806.25,821.25,817.5,798.75,632.9166666666666
1172,735,1185,86.25,663.75,903.75,975,997.5,990,726.25
1173,836.25,1417.5,-30,618.75,990,1140,1203.75,1207.5,820.4166666666666
1174,907.5,1541.25,-138.75,562.5,1053.75,1275,1368.75,1372.5,882.5
1175,960,1567.5,-266.25,438.75,1050,1350,1466.25,1470,892.9166666666666
1176,937.5,1571.25,-352.5,330,1053.75,1417.5,1548.75,1548.75,895.0
1177,851.25,1522.5,-345,337.5,1121.25,1496.25,1612.5,1578.75,908.3333333333334
1178,776.25,1455,-322.5,352.5,1177.5,1552.5,1642.5,1571.25,911.6666666666666
1179,697.5,1425,-333.75,285,1181.25,1571.25,1650,1563.75,893.3333333333334
1180,603.75,1357.5,-367.5,157.5,1102.5,1496.25,1575,1488.75,823.75
1181,502.5,1222.5,-375,26.25,952.5,1320,1395,1320,707.0833333333334
1182,367.5,1042.5,-333.75,-75,776.25,1080,1143.75,1095,566.25
1183,187.5,843.75,-303.75,-187.5,558.75,810,873.75,866.25,405.4166666666667
1184,7.5,663.75,-318.75,-337.5,311.25,528.75,615,660,236.66666666666666
1185,-120,502.5,-341.25,-483.75,86.25,281.25,386.25,468.75,86.66666666666667
1186,-187.5,360,-348.75,-570,-67.5,105,202.5,296.25,-23.333333333333332
1187,-202.5,255,-326.25,-558.75,-112.5,18.75,86.25,165,-75.0
1188,-187.5,187.5,-315,-528.75,-123.75,-26.25,11.25,67.5,-101.66666666666667
1189,-187.5,138.75,-326.25,-510,-131.25,-52.5,-22.5,22.5,-118.75
1190,-172.5,138.75,-315,-453.75,-105,-33.75,-11.25,26.25,-102.91666666666667
1191,-153.75,142.5,-300,-405,-93.75,-30,-7.5,33.75,-90.41666666666667
1192,-146.25,112.5,-292.5,-382.5,-123.75,-63.75,-30,18.75,-100.83333333333333
1193,-135,86.25,-277.5,-352.5,-142.5,-90,-48.75,3.75,-106.25
1194,-116.25,78.75,-258.75,-315,-135,-93.75,-52.5,0,-99.16666666666667
1195,-71.25,105,-236.25,-266.25,-108.75,-75,-41.25,11.25,-75.83333333333333
1196,-30,142.5,-198.75,-202.5,-60,-41.25,-15,33.75,-41.25
1197,-7.5,165,-157.5,-131.25,-11.25,-3.75,11.25,56.25,-8.75
1198,18.75,180,-116.25,-78.75,22.5,15,26.25,63.75,14.583333333333334
1199,18.75,153.75,-97.5,-67.5,22.5,7.5,7.5,45,10.0
1200,7.5,120,-86.25,-71.25,11.25,-11.25,-7.5,22.5,-1.6666666666666667
1201,22.5,135,-56.25,-48.75,26.25,0,0,26.25,11.666666666666666
1202,37.5,153.75,-33.75,-22.5,41.25,11.25,7.5,33.75,25.416666666666668
1203,18.75,131.25,-33.75,-26.25,30,-3.75,-7.5,22.5,14.583333333333334
1204,7.5,120,-30,-30,18.75,-15,-18.75,11.25,7.083333333333333
1205,22.5,131.25,-26.25,-22.5,18.75,-18.75,-22.5,7.5,10.0
1206,30,135,-26.25,-22.5,11.25,-26.25,-30,0,7.916666666666667
1207,26.25,123.75,-30,-37.5,-3.75,-41.25,-45,-15,-2.5
1208,30,123.75,-30,-41.25,-11.25,-45,-48.75,-15,-4.166666666666667
1209,48.75,138.75,-26.25,-33.75,-7.5,-41.25,-41.25,-11.25,2.9166666666666665
1210,48.75,127.5,-22.5,-30,-3.75,-41.25,-45,-11.25,2.5
1211,30,90,-33.75,-41.25,-18.75,-56.25,-60,-26.25,-12.916666666666666
1212,11.25,67.5,-33.75,-52.5,-30,-63.75,-67.5,-37.5,-22.916666666666668
1213,-7.5,56.25,-33.75,-52.5,-30,-63.75,-67.5,-37.5,-26.25
1214,-7.5,52.5,-33.75,-52.5,-33.75,-67.5,-67.5,-37.5,-27.5
1215,3.75,67.5,-33.75,-48.75,-30,-67.5,-67.5,-37.5,-23.75
1216,22.5,93.75,-26.25,-41.25,-22.5,-63.75,-63.75,-33.75,-15.0
1217,33.75,108.75,-18.75,-33.75,-22.5,-63.75,-63.75,-30,-10.0
1218,26.25,93.75,-30,-45,-37.5,-75,-78.75,-45,-21.25
1219,-7.5,60,-45,-60,-52.5,-90,-90,-56.25,-37.916666666666664
1220,-37.5,56.25,-33.75,-48.75,-41.25,-78.75,-78.75,-45,-34.166666666666664
1221,-18.75,71.25,-26.25,-41.25,-33.75,-67.5,-71.25,-33.75,-24.583333333333332
1222,-3.75,60,-37.5,-52.5,-41.25,-75,-78.75,-45,-30.416666666666668
1223,0,60,-41.25,-56.25,-45,-78.75,-78.75,-45,-31.666666666666668
1224,41.25,93.75,-26.25,-45,-33.75,-63.75,-63.75,-33.75,-14.583333333333334
1225,67.5,112.5,-18.75,-30,-18.75,-56.25,-56.25,-22.5,-2.5
1226,52.5,105,-18.75,-26.25,-15,-52.5,-52.5,-22.5,-3.3333333333333335
1227,41.25,101.25,-18.75,-26.25,-15,-52.5,-56.25,-22.5,-5.416666666666667
1228,41.25,112.5,-11.25,-15,-7.5,-45,-48.75,-15,1.25
1229,56.25,131.25,-11.25,-7.5,-3.75,-41.25,-41.25,-7.5,8.333333333333334
1230,56.25,116.25,-26.25,-22.5,-15,-52.5,-52.5,-18.75,-1.6666666666666667
1231,48.75,97.5,-30,-30,-18.75,-56.25,-52.5,-22.5,-7.083333333333333
1232,45,101.25,-26.25,-22.5,-15,-48.75,-48.75,-22.5,-4.166666666666667
1233,52.5,120,-22.5,-15,-7.5,-41.25,-45,-18.75,2.5
1234,75,142.5,-18.75,-11.25,0,-37.5,-37.5,-11.25,11.25
1235,90,146.25,-15,-7.5,3.75,-33.75,-33.75,-3.75,16.25
1236,60,112.5,-22.5,-18.75,-7.5,-41.25,-41.25,-15,2.9166666666666665
1237,33.75,90,-22.5,-18.75,-7.5,-37.5,-41.25,-11.25,-1.6666666666666667
1238,71.25,116.25,-18.75,-11.25,0,-33.75,-33.75,-3.75,9.583333333333334
1239,78.75,105,-30,-18.75,-3.75,-41.25,-41.25,-11.25,4.166666666666667
1240,48.75,90,-33.75,-15,-3.75,-41.25,-41.25,-11.25,-0.8333333333333334
1241,45,116.25,-18.75,3.75,11.25,-26.25,-30,3.75,11.666666666666666
1242,33.75,105,-30,-3.75,3.75,-33.75,-33.75,0,4.583333333333333
1243,52.5,97.5,-41.25,-11.25,-3.75,-41.25,-41.25,-11.25,0.0
1244,90,127.5,-30,0,7.5,-33.75,-30,3.75,15.0
1245,97.5,142.5,-26.25,3.75,11.25,-26.25,-26.25,7.5,20.416666666666668
1246,90,146.25,-22.5,7.5,15,-22.5,-22.5,11.25,22.5
1247,101.25,146.25,-22.5,7.5,15,-22.5,-22.5,11.25,23.75
1248,116.25,123.75,-37.5,-3.75,0,-33.75,-37.5,0,14.166666666666666
1249,93.75,105,-37.5,-7.5,0,-33.75,-33.75,0,9.583333333333334
1250,67.5,108.75,-30,3.75,11.25,-26.25,-26.25,7.5,12.916666666666666
1251,67.5,123.75,-22.5,18.75,22.5,-15,-15,18.75,22.083333333333332
1252,112.5,161.25,-15,22.5,30,-7.5,-7.5,22.5,35.416666666666664
1253,161.25,202.5,-11.25,37.5,41.25,0,0,33.75,51.666666666666664
1254,142.5,172.5,-26.25,22.5,26.25,-11.25,-11.25,22.5,37.5
1255,120,146.25,-41.25,3.75,7.5,-26.25,-26.25,7.5,21.25
1256,123.75,165,-33.75,18.75,26.25,-7.5,-11.25,26.25,34.166666666666664
1257,82.5,138.75,-30,26.25,33.75,0,-3.75,33.75,31.25
1258,67.5,116.25,-37.5,15,22.5,-7.5,-7.5,26.25,21.666666666666668
1259,90,105,-52.5,-3.75,7.5,-22.5,-22.5,11.25,12.5
1260,71.25,75,-60,-7.5,0,-30,-26.25,7.5,3.3333333333333335
1261,60,78.75,-56.25,-3.75,3.75,-22.5,-18.75,15,6.25
1262,120,135,-37.5,15,26.25,-3.75,0,30,31.666666666666668
1263,150,172.5,-22.5,33.75,41.25,11.25,11.25,41.25,48.75
1264,153.75,183.75,-15,45,48.75,15,18.75,48.75,55.416666666666664
1265,183.75,202.5,-18.75,45,45,11.25,15,48.75,59.166666666666664
1266,191.25,206.25,-26.25,41.25,45,15,18.75,52.5,60.416666666666664
1267,176.25,191.25,-37.5,37.5,41.25,15,18.75,52.5,55.0
1268,172.5,187.5,-33.75,37.5,45,15,22.5,56.25,55.833333333333336
1269,176.25,187.5,-33.75,37.5,45,15,22.5,56.25,56.25
1270,153.75,161.25,-45,30,33.75,7.5,11.25,48.75,44.583333333333336
1271,146.25,138.75,-63.75,11.25,18.75,-7.5,-3.75,33.75,30.416666666666668
1272,138.75,138.75,-60,15,22.5,-3.75,0,37.5,32.083333333333336
1273,127.5,150,-48.75,26.25,33.75,7.5,11.25,48.75,39.583333333333336
1274,120,135,-56.25,18.75,22.5,0,7.5,45,32.5
1275,90,108.75,-63.75,15,18.75,-3.75,3.75,41.25,23.333333333333332
1276,123.75,153.75,-45,37.5,41.25,18.75,26.25,63.75,46.666666666666664
1277,180,195,-45,45,45,26.25,33.75,71.25,61.25
1278,183.75,187.5,-52.5,37.5,37.5,18.75,30,71.25,57.083333333333336
1279,183.75,195,-52.5,37.5,37.5,18.75,30,75,58.333333333333336
1280,195,198.75,-60,30,30,15,26.25,71.25,56.25
1281,206.25,191.25,-75,15,18.75,3.75,15,60,48.333333333333336
1282,198.75,187.5,-75,15,15,3.75,18.75,63.75,47.5
1283,180,187.5,-63.75,18.75,18.75,7.5,22.5,71.25,49.166666666666664
1284,172.5,176.25,-63.75,18.75,22.5,3.75,18.75,67.5,46.25
1285,198.75,180,-63.75,15,18.75,0,15,60,47.083333333333336
1286,210,202.5,-48.75,26.25,26.25,11.25,26.25,71.25,58.333333333333336
1287,202.5,213.75,-33.75,41.25,37.5,22.5,33.75,82.5,66.66666666666667
1288,210,213.75,-41.25,37.5,33.75,18.75,30,78.75,64.58333333333333
1289,225,221.25,-48.75,37.5,26.25,11.25,26.25,78.75,64.16666666666667
1290,243.75,232.5,-56.25,30,22.5,7.5,26.25,78.75,65.0
1291,240,228.75,-56.25,30,22.5,11.25,30,82.5,65.41666666666667
1292,206.25,210,-60,26.25,15,7.5,26.25,78.75,56.666666666666664
1293,183.75,198.75,-63.75,18.75,7.5,0,15,71.25,47.916666666666664
1294,210,206.25,-71.25,15,3.75,-3.75,11.25,67.5,48.75
1295,221.25,202.5,-71.25,7.5,0,-7.5,11.25,63.75,47.5
1296,198.75,187.5,-71.25,3.75,-3.75,-11.25,11.25,63.75,42.083333333333336
1297,195,210,-48.75,26.25,15,7.5,30,86.25,57.916666666666664
1298,213.75,236.25,-33.75,41.25,26.25,22.5,45,101.25,72.5
1299,228.75,213.75,-52.5,22.5,3.75,0,22.5,78.75,57.5
1300,266.25,225,-60,15,-3.75,-15,11.25,67.5,56.25
1301,270,251.25,-56.25,18.75,0,-11.25,15,75,62.5
1302,202.5,213.75,-63.75,15,-3.75,-15,11.25,71.25,47.916666666666664
1303,176.25,195,-67.5,11.25,-15,-22.5,3.75,63.75,38.333333333333336
1304,195,210,-60,15,-11.25,-15,11.25,71.25,46.25
1305,225,217.5,-56.25,15,-11.25,-15,11.25,71.25,50.833333333333336
1306,225,213.75,-52.5,11.25,-15,-18.75,3.75,67.5,48.333333333333336
1307,213.75,195,-60,-3.75,-30,-37.5,-15,48.75,34.583333333333336
1308,198.75,180,-60,0,-33.75,-41.25,-18.75,41.25,29.583333333333332
1309,198.75,202.5,-41.25,11.25,-26.25,-33.75,-15,48.75,38.333333333333336
1310,202.5,213.75,-33.75,15,-18.75,-33.75,-11.25,48.75,42.5
1311,202.5,206.25,-33.75,18.75,-22.5,-37.5,-11.25,45,40.833333333333336
1312,180,198.75,-26.25,30,-15,-30,-7.5,48.75,42.083333333333336
1313,176.25,202.5,-22.5,37.5,-11.25,-26.25,-3.75,52.5,45.0
1314,187.5,198.75,-26.25,30,-15,-33.75,-11.25,45,41.666666666666664
1315,172.5,183.75,-22.5,30,-15,-30,-11.25,45,39.166666666666664
1316,165,183.75,-11.25,37.5,-11.25,-26.25,-7.5,48.75,42.083333333333336
1317,176.25,187.5,-11.25,37.5,-15,-33.75,-15,41.25,40.833333333333336
1318,176.25,172.5,-15,33.75,-18.75,-41.25,-22.5,33.75,35.416666666666664
1319,138.75,138.75,-26.25,22.5,-30,-48.75,-33.75,22.5,20.416666666666668
1320,108.75,120,-22.5,18.75,-37.5,-52.5,-41.25,15,12.083333333333334
1321,123.75,123.75,-11.25,22.5,-33.75,-52.5,-41.25,7.5,15.416666666666666
1322,142.5,138.75,-3.75,30,-26.25,-48.75,-37.5,11.25,22.916666666666668
1323,142.5,157.5,7.5,41.25,-18.75,-41.25,-30,18.75,30.833333333333332
1324,112.5,161.25,18.75,52.5,-3.75,-33.75,-22.5,22.5,34.166666666666664
1325,93.75,150,15,48.75,-7.5,-37.5,-30,18.75,27.916666666666668
1326,123.75,153.75,3.75,37.5,-22.5,-52.5,-45,7.5,22.916666666666668
1327,142.5,157.5,0,30,-30,-56.25,-48.75,0,21.666666666666668
1328,142.5,168.75,11.25,37.5,-22.5,-52.5,-48.75,0,26.25
1329,127.5,176.25,22.5,45,-7.5,-41.25,-37.5,11.25,32.916666666666664
1330,123.75,165,26.25,41.25,-11.25,-45,-41.25,3.75,29.166666666666668
1331,108.75,138.75,22.5,33.75,-22.5,-52.5,-48.75,-7.5,19.166666666666668
1332,90,127.5,22.5,30,-22.5,-52.5,-52.5,-15,14.166666666666666
1333,90,127.5,26.25,33.75,-18.75,-52.5,-52.5,-15,15.416666666666666
1334,71.25,108.75,26.25,30,-22.5,-56.25,-56.25,-22.5,8.75
1335,41.25,82.5,18.75,22.5,-33.75,-67.5,-67.5,-33.75,-4.166666666666667
1336,18.75,67.5,15,18.75,-33.75,-75,-75,-37.5,-11.25
1337,0,67.5,18.75,26.25,-30,-71.25,-75,-37.5,-11.25
1338,7.5,78.75,18.75,22.5,-33.75,-75,-75,-37.5,-10.416666666666666
1339,22.5,82.5,15,15,-37.5,-75,-78.75,-37.5,-10.416666666666666
1340,15,71.25,18.75,15,-33.75,-75,-78.75,-33.75,-11.25
1341,30,82.5,22.5,18.75,-33.75,-71.25,-75,-33.75,-6.666666666666667
1342,56.25,93.75,18.75,7.5,-41.25,-75,-78.75,-41.25,-6.666666666666667
1343,45,75,11.25,0,-48.75,-82.5,-86.25,-52.5,-15.416666666666666
1344,11.25,60,11.25,-7.5,-48.75,-82.5,-90,-52.5,-22.083333333333332
1345,3.75,71.25,26.25,3.75,-41.25,-75,-82.5,-45,-15.416666666666666
1346,26.25,86.25,30,3.75,-41.25,-75,-82.5,-48.75,-11.25
1347,33.75,90,26.25,0,-45,-78.75,-86.25,-52.5,-12.5
1348,15,90,33.75,3.75,-41.25,-78.75,-82.5,-48.75,-12.083333333333334
1349,-3.75,82.5,37.5,11.25,-37.5,-75,-82.5,-45,-12.5
1350,0,71.25,26.25,0,-45,-86.25,-90,-56.25,-20.0
1351,18.75,71.25,18.75,-11.25,-52.5,-90,-93.75,-56.25,-21.666666666666668
1352,22.5,82.5,18.75,-11.25,-56.25,-90,-97.5,-56.25,-20.833333333333332
1353,-37.5,75,33.75,0,-45,-78.75,-86.25,-41.25,-20.0
1354,-75,37.5,22.5,-15,-56.25,-90,-93.75,-56.25,-36.25
1355,-22.5,26.25,-3.75,-45,-86.25,-116.25,-120,-86.25,-50.416666666666664
1356,18.75,41.25,-3.75,-48.75,-86.25,-116.25,-123.75,-86.25,-45.0
1357,-15,26.25,7.5,-41.25,-75,-105,-112.5,-78.75,-43.75
1358,-41.25,18.75,11.25,-41.25,-78.75,-105,-116.25,-78.75,-47.916666666666664
1359,-33.75,33.75,18.75,-30,-71.25,-101.25,-108.75,-71.25,-40.416666666666664
1360,-30,45,22.5,-18.75,-63.75,-93.75,-101.25,-67.5,-34.166666666666664
1361,-18.75,56.25,30,-15,-56.25,-90,-97.5,-63.75,-28.333333333333332
1362,0,63.75,30,-15,-60,-90,-97.5,-63.75,-25.833333333333332
1363,18.75,71.25,26.25,-18.75,-60,-93.75,-101.25,-67.5,-25.0
1364,3.75,63.75,18.75,-22.5,-67.5,-97.5,-105,-67.5,-30.416666666666668
1365,7.5,78.75,22.5,-18.75,-60,-90,-101.25,-63.75,-25.0
1366,26.25,97.5,37.5,0,-45,-78.75,-86.25,-48.75,-10.833333333333334
1367,18.75,86.25,37.5,-3.75,-45,-78.75,-90,-56.25,-14.583333333333334
1368,-22.5,41.25,22.5,-26.25,-67.5,-97.5,-108.75,-75,-37.083333333333336
1369,-37.5,15,7.5,-41.25,-82.5,-112.5,-120,-90,-51.25
1370,-48.75,15,11.25,-37.5,-78.75,-108.75,-116.25,-82.5,-49.583333333333336
1371,-63.75,7.5,11.25,-33.75,-75,-105,-112.5,-78.75,-50.0
1372,-52.5,22.5,11.25,-30,-71.25,-101.25,-105,-75,-44.583333333333336
1373,-15,56.25,15,-18.75,-63.75,-93.75,-101.25,-67.5,-32.083333333333336
1374,-7.5,63.75,15,-22.5,-63.75,-93.75,-97.5,-63.75,-30.0
1375,-18.75,56.25,15,-22.5,-63.75,-93.75,-97.5,-63.75,-32.083333333333336
1376,-7.5,63.75,22.5,-18.75,-60,-90,-97.5,-60,-27.5
1377,-7.5,63.75,18.75,-22.5,-63.75,-93.75,-101.25,-60,-29.583333333333332
1378,-48.75,22.5,0,-33.75,-75,-108.75,-116.25,-75,-48.333333333333336
1379,-48.75,15,0,-33.75,-75,-112.5,-116.25,-78.75,-50.0
1380,-18.75,45,11.25,-26.25,-67.5,-105,-108.75,-71.25,-37.916666666666664
1381,7.5,67.5,26.25,-15,-56.25,-90,-101.25,-63.75,-25.0
1382,15,78.75,30,-7.5,-48.75,-86.25,-93.75,-63.75,-19.583333333333332
1383,11.25,90,37.5,0,-41.25,-78.75,-86.25,-60,-14.166666666666666
1384,11.25,90,37.5,0,-41.25,-78.75,-86.25,-56.25,-13.75
1385,-18.75,67.5,26.25,-3.75,-48.75,-82.5,-90,-63.75,-23.75
1386,-45,56.25,26.25,0,-48.75,-78.75,-86.25,-60,-26.25
1387,-26.25,63.75,15,-15,-56.25,-86.25,-93.75,-63.75,-29.166666666666668
1388,-30,37.5,-3.75,-33.75,-75,-105,-112.5,-82.5,-45.0
1389,-22.5,33.75,-3.75,-30,-71.25,-105,-112.5,-78.75,-43.333333333333336
1390,15,75,15,-11.25,-52.5,-86.25,-93.75,-60,-22.083333333333332
1391,26.25,93.75,30,-3.75,-45,-75,-86.25,-52.5,-12.5
1392,0,67.5,30,-3.75,-45,-78.75,-86.25,-56.25,-19.166666666666668
1393,-7.5,52.5,26.25,-11.25,-52.5,-82.5,-90,-56.25,-24.583333333333332
1394,-7.5,45,22.5,-11.25,-52.5,-86.25,-93.75,-60,-27.083333333333332
1395,-18.75,45,26.25,-7.5,-48.75,-86.25,-93.75,-63.75,-27.5
1396,-18.75,71.25,33.75,7.5,-37.5,-75,-82.5,-52.5,-17.083333333333332
1397,-30,78.75,33.75,11.25,-33.75,-71.25,-75,-45,-14.583333333333334
1398,-37.5,63.75,22.5,3.75,-37.5,-75,-82.5,-48.75,-21.25
1399,11.25,71.25,11.25,-7.5,-48.75,-82.5,-90,-56.25,-21.25
1400,30,71.25,3.75,-18.75,-60,-90,-97.5,-63.75,-25.0
1401,15,75,7.5,-15,-56.25,-86.25,-90,-60,-23.333333333333332
1402,-11.25,60,3.75,-18.75,-52.5,-86.25,-93.75,-63.75,-29.166666666666668
1403,-37.5,22.5,-11.25,-30,-67.5,-97.5,-108.75,-78.75,-45.416666666666664
1404,-41.25,18.75,-3.75,-33.75,-67.5,-97.5,-108.75,-78.75,-45.833333333333336
1405,-48.75,33.75,11.25,-22.5,-60,-86.25,-93.75,-67.5,-37.083333333333336
1406,-26.25,56.25,18.75,-11.25,-48.75,-78.75,-86.25,-56.25,-25.833333333333332
1407,7.5,78.75,22.5,-3.75,-41.25,-75,-86.25,-56.25,-17.083333333333332
1408,15,93.75,30,7.5,-33.75,-71.25,-78.75,-48.75,-9.583333333333334
1409,7.5,86.25,22.5,0,-45,-78.75,-90,-56.25,-17.083333333333332
1410,-3.75,75,7.5,-11.25,-52.5,-90,-93.75,-60,-25.416666666666668
1411,-15,63.75,3.75,-18.75,-56.25,-90,-97.5,-63.75,-30.416666666666668
1412,-26.25,71.25,18.75,-3.75,-45,-78.75,-86.25,-52.5,-22.5
1413,-18.75,71.25,15,-11.25,-48.75,-82.5,-86.25,-52.5,-23.75
1414,-11.25,41.25,-7.5,-33.75,-71.25,-101.25,-108.75,-75,-40.833333333333336
1415,-11.25,26.25,-22.5,-48.75,-82.5,-112.5,-120,-86.25,-50.833333333333336
1416,7.5,67.5,0,-30,-63.75,-90,-101.25,-67.5,-30.833333333333332
1417,-15,75,7.5,-22.5,-56.25,-86.25,-93.75,-60,-27.916666666666668
1418,-33.75,48.75,0,-30,-67.5,-97.5,-105,-75,-40.0
1419,-18.75,52.5,0,-26.25,-63.75,-93.75,-101.25,-75,-36.25
1420,-3.75,67.5,0,-26.25,-60,-90,-97.5,-71.25,-31.25
1421,-7.5,60,0,-26.25,-63.75,-93.75,-101.25,-75,-34.166666666666664
1422,-26.25,33.75,-7.5,-37.5,-71.25,-101.25,-108.75,-82.5,-44.583333333333336
1423,-30,30,-15,-41.25,-78.75,-108.75,-112.5,-86.25,-49.166666666666664
1424,-11.25,60,-11.25,-37.5,-75,-105,-108.75,-78.75,-40.833333333333336
1425,7.5,75,-15,-41.25,-75,-101.25,-105,-75,-36.666666666666664
1426,15,71.25,-15,-41.25,-78.75,-101.25,-105,-71.25,-36.25
1427,11.25,71.25,-11.25,-37.5,-75,-97.5,-97.5,-67.5,-33.75
1428,-3.75,63.75,-3.75,-37.5,-75,-97.5,-97.5,-67.5,-35.416666666666664
1429,-11.25,52.5,-7.5,-45,-78.75,-105,-105,-75,-41.666666666666664
1430,-11.25,60,-3.75,-41.25,-78.75,-105,-105,-78.75,-40.416666666666664
1431,-15,75,7.5,-30,-67.5,-97.5,-101.25,-67.5,-32.916666666666664
1432,-60,78.75,22.5,-11.25,-52.5,-82.5,-86.25,-48.75,-26.666666666666668
1433,-60,71.25,15,-18.75,-60,-90,-93.75,-56.25,-32.5
1434,-11.25,52.5,-18.75,-52.5,-93.75,-123.75,-123.75,-86.25,-50.833333333333336
1435,3.75,52.5,-18.75,-56.25,-97.5,-123.75,-123.75,-86.25,-50.0
1436,-7.5,56.25,-7.5,-48.75,-86.25,-112.5,-116.25,-78.75,-44.583333333333336
1437,-22.5,52.5,0,-41.25,-82.5,-105,-108.75,-71.25,-42.083333333333336
1438,-22.5,52.5,-3.75,-45,-86.25,-112.5,-112.5,-78.75,-45.416666666666664
1439,-22.5,37.5,-18.75,-63.75,-97.5,-123.75,-123.75,-90,-55.833333333333336
1440,-22.5,30,-18.75,-67.5,-101.25,-127.5,-127.5,-97.5,-59.166666666666664
1441,-37.5,30,-15,-60,-97.5,-123.75,-123.75,-90,-57.5
1442,-67.5,30,-3.75,-48.75,-86.25,-112.5,-112.5,-78.75,-53.333333333333336
1443,-63.75,41.25,3.75,-41.25,-78.75,-105,-105,-71.25,-46.666666666666664
1444,-18.75,67.5,3.75,-41.25,-82.5,-108.75,-108.75,-75,-40.416666666666664
1445,15,90,-3.75,-45,-86.25,-116.25,-112.5,-75,-37.083333333333336
1446,33.75,101.25,-3.75,-41.25,-86.25,-116.25,-112.5,-75,-33.333333333333336
1447,15,75,-15,-56.25,-97.5,-127.5,-123.75,-86.25,-46.25
1448,-11.25,60,-15,-60,-101.25,-127.5,-123.75,-90,-52.083333333333336
1449,-22.5,41.25,-18.75,-60,-101.25,-127.5,-127.5,-93.75,-56.666666666666664
1450,-33.75,18.75,-18.75,-67.5,-105,-131.25,-131.25,-97.5,-62.916666666666664
1451,-18.75,37.5,-7.5,-56.25,-97.5,-123.75,-120,-90,-52.916666666666664
1452,-26.25,33.75,-7.5,-60,-97.5,-123.75,-123.75,-90,-55.0
1453,-60,3.75,-18.75,-71.25,-112.5,-138.75,-138.75,-105,-71.25
1454,-41.25,30,-11.25,-63.75,-105,-135,-131.25,-97.5,-61.666666666666664
1455,0,71.25,3.75,-56.25,-101.25,-123.75,-120,-86.25,-45.833333333333336
1456,0,71.25,7.5,-45,-90,-116.25,-116.25,-82.5,-41.25
1457,-45,26.25,-15,-56.25,-97.5,-131.25,-131.25,-93.75,-60.416666666666664
1458,-67.5,0,-30,-71.25,-116.25,-146.25,-142.5,-105,-75.41666666666667
1459,-41.25,30,-22.5,-67.5,-108.75,-138.75,-135,-97.5,-64.58333333333333
1460,-26.25,52.5,-18.75,-60,-101.25,-131.25,-127.5,-90,-55.833333333333336
1461,-33.75,37.5,-22.5,-67.5,-108.75,-135,-135,-97.5,-62.5
1462,-67.5,11.25,-22.5,-71.25,-112.5,-138.75,-135,-97.5,-70.41666666666667
1463,-67.5,11.25,-22.5,-71.25,-108.75,-135,-135,-93.75,-69.16666666666667
1464,-48.75,11.25,-30,-82.5,-120,-146.25,-142.5,-101.25,-73.33333333333333
1465,-41.25,18.75,-18.75,-75,-120,-142.5,-138.75,-97.5,-68.33333333333333
1466,-48.75,18.75,-11.25,-67.5,-108.75,-135,-135,-97.5,-65.0
1467,-33.75,26.25,-7.5,-63.75,-105,-135,-135,-97.5,-61.25
1468,-26.25,45,0,-52.5,-97.5,-131.25,-127.5,-90,-53.333333333333336
1469,-30,52.5,0,-48.75,-93.75,-127.5,-127.5,-86.25,-51.25
1470,3.75,67.5,-11.25,-60,-105,-135,-138.75,-97.5,-52.916666666666664
1471,18.75,67.5,-18.75,-67.5,-108.75,-142.5,-146.25,-101.25,-55.416666666666664
1472,3.75,67.5,-18.75,-63.75,-105,-135,-142.5,-93.75,-54.166666666666664
1473,-18.75,56.25,-18.75,-63.75,-105,-135,-138.75,-90,-57.083333333333336
1474,-52.5,18.75,-22.5,-71.25,-112.5,-138.75,-138.75,-97.5,-68.33333333333333
1475,-56.25,11.25,-18.75,-71.25,-112.5,-135,-138.75,-93.75,-68.33333333333333
1476,-45,22.5,-11.25,-67.5,-105,-127.5,-131.25,-90,-61.666666666666664
1477,-56.25,18.75,-11.25,-67.5,-105,-131.25,-131.25,-90,-63.75
1478,-48.75,22.5,-11.25,-67.5,-105,-135,-135,-93.75,-63.75
1479,-60,3.75,-15,-71.25,-112.5,-142.5,-142.5,-97.5,-70.83333333333333
1480,-63.75,11.25,-15,-67.5,-112.5,-142.5,-142.5,-93.75,-69.58333333333333
1481,-22.5,52.5,-11.25,-56.25,-105,-135,-135,-82.5,-55.0
1482,3.75,63.75,-15,-60,-105,-138.75,-138.75,-86.25,-52.916666666666664
1483,-3.75,52.5,-22.5,-67.5,-112.5,-142.5,-146.25,-93.75,-59.583333333333336
1484,-15,48.75,-22.5,-63.75,-108.75,-138.75,-142.5,-90,-59.166666666666664
1485,-3.75,67.5,-11.25,-52.5,-97.5,-131.25,-135,-82.5,-49.583333333333336
1486,11.25,90,7.5,-41.25,-86.25,-116.25,-120,-71.25,-36.25
1487,-7.5,78.75,3.75,-48.75,-90,-120,-123.75,-75,-42.5
1488,-41.25,45,-3.75,-56.25,-97.5,-127.5,-131.25,-82.5,-55.0
1489,-52.5,30,0,-60,-101.25,-127.5,-131.25,-82.5,-58.333333333333336
1490,-45,33.75,-3.75,-60,-101.25,-123.75,-127.5,-86.25,-57.083333333333336
1491,-41.25,45,-3.75,-56.25,-97.5,-123.75,-127.5,-86.25,-54.583333333333336
1492,-30,63.75,3.75,-45,-90,-120,-123.75,-78.75,-46.666666666666664
1493,0,90,15,-33.75,-78.75,-112.5,-116.25,-71.25,-34.166666666666664
1494,-3.75,82.5,15,-33.75,-78.75,-112.5,-112.5,-67.5,-34.583333333333336
1495,-52.5,60,22.5,-30,-78.75,-112.5,-112.5,-63.75,-40.833333333333336
1496,-63.75,52.5,26.25,-33.75,-82.5,-112.5,-120,-67.5,-44.583333333333336
1497,-33.75,60,22.5,-37.5,-90,-120,-127.5,-78.75,-45.0
1498,-37.5,48.75,30,-33.75,-86.25,-120,-123.75,-78.75,-44.583333333333336
1499,-33.75,56.25,41.25,-26.25,-75,-108.75,-116.25,-75,-37.5
1500,-22.5,90,63.75,0,-52.5,-86.25,-93.75,-52.5,-17.083333333333332
1501,-30,78.75,60,-3.75,-56.25,-90,-93.75,-56.25,-21.25
1502,-15,60,45,-15,-67.5,-105,-108.75,-71.25,-30.833333333333332
1503,-3.75,67.5,45,-15,-71.25,-108.75,-112.5,-75,-30.416666666666668
1504,-3.75,93.75,60,7.5,-52.5,-93.75,-101.25,-60,-16.666666666666668
1505,30,142.5,75,22.5,-37.5,-78.75,-86.25,-41.25,2.9166666666666665
1506,67.5,168.75,78.75,26.25,-33.75,-75,-82.5,-33.75,12.916666666666666
1507,37.5,146.25,71.25,18.75,-41.25,-82.5,-86.25,-41.25,2.5
1508,3.75,131.25,71.25,15,-37.5,-78.75,-82.5,-37.5,-1.6666666666666667
1509,7.5,142.5,63.75,11.25,-41.25,-78.75,-82.5,-37.5,-1.6666666666666667
1510,-26.25,116.25,52.5,3.75,-45,-78.75,-86.25,-37.5,-11.25
1511,-41.25,86.25,33.75,-15,-56.25,-90,-93.75,-45,-24.583333333333332
1512,-7.5,90,7.5,-26.25,-67.5,-97.5,-101.25,-52.5,-28.333333333333332
1513,0,93.75,-7.5,-30,-67.5,-97.5,-97.5,-52.5,-28.75
1514,18.75,120,-7.5,-26.25,-63.75,-90,-86.25,-41.25,-19.583333333333332
1515,45,142.5,-7.5,-18.75,-56.25,-82.5,-78.75,-33.75,-10.0
1516,56.25,153.75,0,-15,-48.75,-78.75,-78.75,-30,-4.583333333333333
1517,45,146.25,0,-7.5,-45,-78.75,-78.75,-30,-5.416666666666667
1518,37.5,123.75,-11.25,-22.5,-63.75,-93.75,-90,-41.25,-17.916666666666668
1519,33.75,112.5,-22.5,-41.25,-78.75,-105,-101.25,-48.75,-27.916666666666668
1520,30,116.25,-30,-52.5,-90,-112.5,-108.75,-52.5,-33.333333333333336
1521,7.5,93.75,-41.25,-60,-97.5,-120,-116.25,-60,-43.75
1522,-3.75,67.5,-48.75,-71.25,-108.75,-127.5,-123.75,-67.5,-53.75
1523,22.5,75,-45,-71.25,-108.75,-123.75,-116.25,-67.5,-48.333333333333336
1524,22.5,78.75,-33.75,-67.5,-101.25,-120,-112.5,-63.75,-44.166666666666664
1525,-7.5,60,-30,-67.5,-105,-123.75,-120,-75,-52.083333333333336
1526,-11.25,52.5,-26.25,-63.75,-105,-127.5,-123.75,-78.75,-53.75
1527,-11.25,71.25,-15,-52.5,-93.75,-120,-112.5,-67.5,-44.583333333333336
1528,-3.75,90,-3.75,-37.5,-82.5,-108.75,-108.75,-56.25,-34.583333333333336
1529,26.25,93.75,-11.25,-41.25,-90,-120,-116.25,-67.5,-36.25
1530,11.25,71.25,-22.5,-60,-101.25,-131.25,-131.25,-78.75,-49.166666666666664
1531,7.5,60,-30,-63.75,-108.75,-135,-135,-86.25,-54.583333333333336
1532,7.5,71.25,-22.5,-56.25,-101.25,-127.5,-123.75,-75,-47.5
1533,-22.5,63.75,-22.5,-56.25,-97.5,-120,-116.25,-67.5,-48.75
1534,-33.75,52.5,-26.25,-63.75,-101.25,-127.5,-123.75,-75,-55.416666666666664
1535,-48.75,37.5,-30,-75,-116.25,-135,-131.25,-86.25,-65.0
1536,-67.5,22.5,-26.25,-78.75,-120,-142.5,-138.75,-90,-71.25
1537,-45,18.75,-30,-82.5,-123.75,-150,-146.25,-101.25,-73.33333333333333
1538,-48.75,3.75,-30,-82.5,-123.75,-153.75,-150,-105,-76.66666666666667
1539,-75,-11.25,-30,-82.5,-127.5,-157.5,-153.75,-105,-82.5
1540,-37.5,26.25,-18.75,-71.25,-120,-150,-142.5,-93.75,-67.5
1541,0,60,-15,-67.5,-116.25,-146.25,-142.5,-90,-57.5
1542,-15,45,-18.75,-75,-120,-150,-146.25,-93.75,-63.75
1543,-41.25,11.25,-30,-86.25,-131.25,-161.25,-157.5,-108.75,-78.33333333333333
1544,-45,11.25,-30,-82.5,-123.75,-153.75,-153.75,-105,-75.83333333333333
1545,-11.25,41.25,-26.25,-78.75,-120,-150,-146.25,-97.5,-65.41666666666667
1546,-11.25,30,-37.5,-90,-131.25,-157.5,-150,-105,-72.5
1547,-56.25,-15,-45,-101.25,-142.5,-165,-161.25,-112.5,-88.75
1548,-56.25,-11.25,-37.5,-97.5,-135,-157.5,-153.75,-108.75,-84.16666666666667
1549,-7.5,52.5,-11.25,-71.25,-108.75,-131.25,-127.5,-86.25,-54.583333333333336
1550,-3.75,86.25,0,-52.5,-93.75,-120,-112.5,-71.25,-40.833333333333336
1551,-37.5,45,-18.75,-71.25,-112.5,-138.75,-135,-93.75,-62.5
1552,-52.5,7.5,-37.5,-90,-135,-161.25,-153.75,-112.5,-81.66666666666667
1553,-67.5,3.75,-37.5,-86.25,-135,-161.25,-153.75,-108.75,-82.91666666666667
1554,-71.25,0,-41.25,-86.25,-135,-157.5,-153.75,-105,-83.33333333333333
1555,-48.75,18.75,-41.25,-86.25,-135,-161.25,-153.75,-108.75,-79.58333333333333
1556,-41.25,33.75,-41.25,-86.25,-131.25,-161.25,-153.75,-105,-76.25
1557,-41.25,30,-37.5,-86.25,-127.5,-157.5,-157.5,-105,-75.83333333333333
1558,-48.75,22.5,-33.75,-82.5,-131.25,-157.5,-153.75,-105,-76.66666666666667
1559,-60,18.75,-30,-82.5,-127.5,-157.5,-153.75,-105,-77.5
1560,-75,7.5,-22.5,-75,-123.75,-150,-150,-101.25,-76.66666666666667
1561,-56.25,3.75,-26.25,-78.75,-127.5,-157.5,-157.5,-112.5,-79.16666666666667
1562,-52.5,3.75,-22.5,-78.75,-123.75,-157.5,-157.5,-112.5,-77.91666666666667
1563,-56.25,3.75,-18.75,-75,-123.75,-157.5,-161.25,-116.25,-78.33333333333333
1564,-26.25,22.5,-11.25,-63.75,-120,-157.5,-157.5,-112.5,-69.58333333333333
1565,-18.75,15,3.75,-45,-116.25,-165,-168.75,-123.75,-68.75
1566,-41.25,-26.25,30,-15,-116.25,-180,-195,-153.75,-77.5
1567,-60,-60,75,26.25,-108.75,-195,-221.25,-183.75,-80.83333333333333
1568,-86.25,-71.25,138.75,86.25,-86.25,-195,-228.75,-195,-70.83333333333333
1569,-78.75,-71.25,187.5,135,-71.25,-198.75,-236.25,-206.25,-60.0
1570,-30,-75,202.5,153.75,-67.5,-210,-255,-225,-56.25
1571,-18.75,-67.5,221.25,202.5,-37.5,-191.25,-240,-213.75,-38.333333333333336
1572,-3.75,-15,270,285,33.75,-131.25,-187.5,-172.5,8.75
1573,63.75,67.5,303.75,367.5,105,-63.75,-131.25,-123.75,65.41666666666667
1574,138.75,150,330,431.25,176.25,3.75,-67.5,-63.75,122.08333333333333
1575,187.5,232.5,352.5,491.25,247.5,78.75,7.5,7.5,178.33333333333334
1576,266.25,318.75,348.75,528.75,303.75,142.5,75,78.75,229.16666666666666
1577,371.25,397.5,311.25,555,352.5,206.25,146.25,150,276.6666666666667
1578,427.5,483.75,288.75,603.75,438.75,315,262.5,258.75,342.0833333333333
1579,461.25,592.5,266.25,637.5,525,431.25,386.25,382.5,409.1666666666667
1580,540,720,217.5,633.75,600,543.75,513.75,510,475.4166666666667
1581,611.25,873.75,191.25,656.25,705,690,671.25,667.5,562.9166666666666
1582,660,1057.5,195,731.25,843.75,866.25,851.25,836.25,671.25
1583,675,1233.75,142.5,746.25,948.75,1027.5,1035,1023.75,759.1666666666666
1584,716.25,1413.75,30,697.5,1020,1181.25,1226.25,1226.25,834.5833333333334
1585,806.25,1515,-82.5,641.25,1076.25,1305,1376.25,1376.25,890.4166666666666
1586,843.75,1545,-202.5,528.75,1083.75,1383.75,1481.25,1477.5,904.5833333333334
1587,798.75,1575,-273.75,423.75,1102.5,1473.75,1590,1575,918.3333333333334
1588,723.75,1518.75,-255,435,1170,1552.5,1646.25,1601.25,932.5
1589,678.75,1443.75,-225,468.75,1241.25,1612.5,1676.25,1582.5,942.0833333333334
1590,626.25,1406.25,-247.5,401.25,1245,1631.25,1676.25,1563.75,922.5
1591,532.5,1331.25,-277.5,273.75,1166.25,1560,1597.5,1481.25,851.6666666666666
1592,420,1181.25,-281.25,135,1008.75,1372.5,1406.25,1297.5,726.6666666666666
1593,270,990,-243.75,30,832.5,1128.75,1155,1068.75,581.25
1594,142.5,821.25,-206.25,-82.5,615,851.25,881.25,843.75,429.5833333333333
1595,37.5,675,-206.25,-221.25,363.75,566.25,611.25,626.25,272.5
1596,-105,491.25,-236.25,-375,120,300,363.75,416.25,108.33333333333333
1597,-183.75,341.25,-247.5,-461.25,-33.75,120,180,247.5,-4.166666666666667
1598,-202.5,240,-236.25,-461.25,-90,26.25,56.25,112.5,-61.666666666666664
1599,-240,157.5,-225,-446.25,-112.5,-26.25,-15,26.25,-97.91666666666667
1600,-247.5,120,-232.5,-431.25,-120,-45,-41.25,-3.75,-111.25
1601,-187.5,127.5,-251.25,-405,-112.5,-41.25,-37.5,-3.75,-101.25
1602,-127.5,153.75,-247.5,-363.75,-101.25,-33.75,-26.25,3.75,-82.5
1603,-127.5,131.25,-247.5,-341.25,-127.5,-60,-41.25,0,-90.41666666666667
1604,-157.5,78.75,-243.75,-330,-161.25,-93.75,-67.5,-18.75,-110.41666666666667
1605,-157.5,56.25,-225,-296.25,-161.25,-105,-78.75,-30,-110.83333333333333
1606,-108.75,60,-210,-266.25,-157.5,-112.5,-86.25,-37.5,-102.08333333333333
1607,-75,75,-187.5,-225,-131.25,-101.25,-78.75,-30,-83.75
1608,-75,86.25,-161.25,-161.25,-86.25,-67.5,-52.5,-11.25,-58.75
1609,-41.25,112.5,-123.75,-101.25,-41.25,-37.5,-30,3.75,-28.75
1610,18.75,157.5,-75,-45,-3.75,-7.5,-11.25,18.75,5.833333333333333
1611,15,168.75,-45,-15,15,0,-7.5,22.5,17.083333333333332
1612,-18.75,138.75,-33.75,-3.75,11.25,-11.25,-18.75,11.25,8.333333333333334
1613,-3.75,135,-30,0,7.5,-18.75,-30,0,6.666666666666667
1614,41.25,153.75,-18.75,7.5,7.5,-18.75,-33.75,-7.5,14.583333333333334
1615,33.75,127.5,-26.25,-3.75,-11.25,-41.25,-56.25,-22.5,0.0
1616,7.5,108.75,-26.25,-11.25,-26.25,-56.25,-67.5,-33.75,-11.666666666666666
1617,3.75,105,-30,-15,-30,-60,-75,-37.5,-15.416666666666666
1618,-11.25,86.25,-30,-18.75,-33.75,-67.5,-82.5,-48.75,-22.916666666666668
1619,-33.75,75,-15,-15,-33.75,-71.25,-82.5,-48.75,-25.0
1620,-7.5,101.25,0,-3.75,-26.25,-63.75,-75,-41.25,-12.916666666666666
1621,45,135,11.25,7.5,-22.5,-56.25,-71.25,-37.5,1.25
1622,56.25,131.25,7.5,3.75,-30,-63.75,-75,-41.25,-1.25
1623,37.5,112.5,0,0,-33.75,-71.25,-82.5,-48.75,-9.583333333333334
1624,26.25,108.75,3.75,3.75,-30,-67.5,-78.75,-45,-8.75
1625,11.25,105,0,0,-37.5,-75,-82.5,-45,-13.75
1626,-15,86.25,-7.5,-7.5,-48.75,-86.25,-90,-56.25,-25.0
1627,-11.25,82.5,-15,-15,-52.5,-90,-97.5,-60,-28.75
1628,15,86.25,-18.75,-18.75,-56.25,-90,-97.5,-63.75,-27.083333333333332
1629,11.25,63.75,-37.5,-37.5,-75,-105,-116.25,-78.75,-41.666666666666664
1630,-22.5,33.75,-41.25,-41.25,-78.75,-108.75,-116.25,-82.5,-50.833333333333336
1631,-3.75,56.25,-26.25,-26.25,-63.75,-97.5,-105,-71.25,-37.5
1632,22.5,86.25,-11.25,-15,-56.25,-90,-97.5,-63.75,-25.0
1633,7.5,86.25,-11.25,-11.25,-52.5,-86.25,-93.75,-63.75,-25.0
1634,-3.75,82.5,-11.25,-3.75,-45,-82.5,-90,-56.25,-23.333333333333332
1635,18.75,105,-3.75,7.5,-37.5,-75,-82.5,-48.75,-12.916666666666666
1636,45,131.25,0,11.25,-33.75,-71.25,-75,-45,-4.166666666666667
1637,71.25,135,-11.25,3.75,-41.25,-78.75,-82.5,-52.5,-6.25
1638,82.5,135,-15,3.75,-41.25,-75,-78.75,-48.75,-4.166666666666667
1639,67.5,138.75,-7.5,11.25,-30,-60,-67.5,-37.5,1.6666666666666667
1640,60,142.5,3.75,22.5,-22.5,-52.5,-56.25,-26.25,7.916666666666667
1641,48.75,123.75,-7.5,11.25,-30,-60,-67.5,-33.75,-1.6666666666666667
1642,30,82.5,-22.5,-7.5,-48.75,-78.75,-86.25,-52.5,-20.416666666666668
1643,22.5,63.75,-30,-18.75,-60,-90,-93.75,-63.75,-30.0
1644,22.5,60,-26.25,-15,-56.25,-86.25,-93.75,-63.75,-28.75
1645,37.5,75,-15,0,-45,-78.75,-82.5,-56.25,-18.333333333333332
1646,71.25,116.25,-3.75,15,-30,-63.75,-71.25,-41.25,-0.8333333333333334
1647,60,138.75,7.5,26.25,-18.75,-52.5,-56.25,-26.25,8.75
1648,41.25,142.5,3.75,33.75,-15,-48.75,-52.5,-18.75,9.583333333333334
1649,63.75,135,-7.5,26.25,-26.25,-60,-63.75,-26.25,4.583333333333333
1650,108.75,157.5,-11.25,22.5,-22.5,-60,-63.75,-30,11.25
1651,112.5,168.75,-7.5,30,-15,-48.75,-56.25,-22.5,17.916666666666668
1652,67.5,127.5,-22.5,15,-26.25,-60,-67.5,-33.75,0.0
1653,45,101.25,-30,7.5,-37.5,-75,-78.75,-37.5,-11.666666666666666
1654,60,120,-22.5,15,-30,-67.5,-67.5,-30,-2.5
1655,86.25,131.25,-26.25,15,-30,-63.75,-63.75,-26.25,2.5
1656,82.5,120,-26.25,11.25,-30,-63.75,-60,-30,0.4166666666666667
1657,52.5,108.75,-22.5,15,-26.25,-60,-60,-30,-2.5
1658,30,97.5,-22.5,18.75,-26.25,-56.25,-60,-30,-5.416666666666667
1659,26.25,116.25,-11.25,37.5,-7.5,-37.5,-45,-15,7.083333333333333
1660,71.25,161.25,0,52.5,7.5,-26.25,-30,0,26.25
1661,101.25,165,-11.25,45,-7.5,-37.5,-41.25,-7.5,22.916666666666668
1662,112.5,165,-18.75,37.5,-11.25,-41.25,-45,-11.25,20.833333333333332
1663,112.5,165,-18.75,37.5,-7.5,-37.5,-41.25,-3.75,22.916666666666668
1664,56.25,116.25,-37.5,22.5,-18.75,-48.75,-52.5,-15,2.5
1665,37.5,82.5,-45,15,-30,-56.25,-60,-22.5,-8.75
1666,56.25,82.5,-48.75,11.25,-33.75,-56.25,-60,-26.25,-8.333333333333334
1667,86.25,116.25,-37.5,22.5,-18.75,-41.25,-45,-15,7.5
1668,120,157.5,-26.25,33.75,-3.75,-26.25,-26.25,0,25.416666666666668
1669,127.5,168.75,-18.75,45,3.75,-18.75,-18.75,11.25,33.333333333333336
1670,120,165,-18.75,45,3.75,-18.75,-18.75,11.25,32.083333333333336
1671,120,176.25,-15,48.75,3.75,-15,-18.75,11.25,34.583333333333336
1672,135,187.5,-15,52.5,7.5,-11.25,-15,18.75,40.0
1673,142.5,183.75,-22.5,60,11.25,-11.25,-15,18.75,40.833333333333336
1674,138.75,183.75,-22.5,56.25,11.25,-11.25,-11.25,22.5,40.833333333333336
1675,135,180,-26.25,52.5,7.5,-7.5,-7.5,26.25,40.0
1676,123.75,165,-37.5,41.25,0,-18.75,-18.75,15,30.0
1677,138.75,168.75,-45,33.75,-7.5,-26.25,-26.25,11.25,27.5
1678,146.25,172.5,-45,37.5,-7.5,-22.5,-22.5,15,30.416666666666668
1679,135,161.25,-45,33.75,-11.25,-22.5,-22.5,11.25,26.666666666666668
1680,120,161.25,-41.25,41.25,-3.75,-15,-15,18.75,29.583333333333332
1681,138.75,187.5,-30,52.5,7.5,-7.5,-3.75,30,41.666666666666664
1682,180,217.5,-30,56.25,11.25,-3.75,0,33.75,51.666666666666664
1683,176.25,217.5,-22.5,63.75,18.75,0,7.5,45,56.25
1684,165,213.75,-26.25,67.5,18.75,0,7.5,45,54.583333333333336
1685,183.75,225,-33.75,63.75,15,0,7.5,45,56.25
1686,202.5,228.75,-41.25,56.25,7.5,-3.75,3.75,45,55.416666666666664
1687,202.5,225,-41.25,56.25,7.5,0,7.5,48.75,56.25
1688,165,191.25,-56.25,41.25,-3.75,-15,-3.75,37.5,39.583333333333336
1689,116.25,142.5,-75,22.5,-22.5,-30,-18.75,22.5,17.5
1690,146.25,168.75,-67.5,26.25,-15,-22.5,-11.25,26.25,27.916666666666668
1691,183.75,206.25,-56.25,33.75,-11.25,-18.75,-3.75,37.5,41.25
1692,183.75,202.5,-60,30,-15,-18.75,-7.5,33.75,38.75
1693,191.25,210,-56.25,33.75,-11.25,-15,-3.75,37.5,42.916666666666664
1694,165,195,-60,33.75,-15,-18.75,-3.75,37.5,37.083333333333336
1695,157.5,195,-56.25,37.5,-11.25,-15,0,41.25,38.75
1696,191.25,225,-48.75,45,-3.75,-7.5,7.5,48.75,50.833333333333336
1697,191.25,221.25,-60,33.75,-18.75,-18.75,0,45,43.75
1698,183.75,213.75,-67.5,26.25,-18.75,-18.75,-3.75,48.75,40.416666666666664
1699,202.5,221.25,-63.75,33.75,-15,-18.75,0,48.75,45.416666666666664
1700,217.5,232.5,-60,33.75,-15,-15,3.75,56.25,50.416666666666664
1701,202.5,232.5,-56.25,30,-18.75,-15,3.75,56.25,48.333333333333336
1702,191.25,221.25,-60,22.5,-26.25,-18.75,0,52.5,42.5
1703,198.75,210,-71.25,7.5,-41.25,-33.75,-11.25,41.25,33.333333333333336
1704,195,213.75,-60,15,-33.75,-26.25,-7.5,45,37.916666666666664
1705,187.5,210,-56.25,18.75,-33.75,-22.5,-3.75,52.5,39.166666666666664
1706,213.75,217.5,-56.25,18.75,-33.75,-26.25,-3.75,52.5,42.5
1707,232.5,251.25,-41.25,37.5,-18.75,-11.25,11.25,71.25,59.166666666666664
1708,225,266.25,-37.5,41.25,-18.75,-11.25,11.25,71.25,60.833333333333336
1709,221.25,255,-48.75,30,-33.75,-30,0,60,50.416666666666664
1710,243.75,255,-60,15,-45,-41.25,-15,48.75,44.583333333333336
1711,236.25,247.5,-63.75,11.25,-52.5,-41.25,-18.75,48.75,40.833333333333336
1712,198.75,228.75,-67.5,3.75,-56.25,-48.75,-22.5,45,31.25
1713,191.25,232.5,-63.75,7.5,-56.25,-48.75,-22.5,45,31.666666666666668
1714,213.75,240,-63.75,3.75,-60,-48.75,-26.25,41.25,33.333333333333336
1715,221.25,236.25,-60,3.75,-60,-48.75,-22.5,45,35.0
1716,240,255,-45,15,-48.75,-41.25,-11.25,56.25,46.666666666666664
1717,240,270,-33.75,22.5,-45,-37.5,-7.5,60,52.083333333333336
1718,210,258.75,-33.75,26.25,-45,-37.5,-7.5,60,47.916666666666664
1719,202.5,247.5,-41.25,18.75,-56.25,-45,-15,52.5,40.416666666666664
1720,217.5,247.5,-52.5,7.5,-67.5,-63.75,-30,37.5,32.916666666666664
1721,206.25,243.75,-45,11.25,-63.75,-60,-30,37.5,33.333333333333336
1722,180,243.75,-26.25,26.25,-52.5,-45,-18.75,48.75,39.583333333333336
1723,161.25,240,-18.75,30,-48.75,-41.25,-18.75,48.75,39.166666666666664
1724,176.25,236.25,-26.25,22.5,-56.25,-56.25,-30,33.75,33.333333333333336
1725,172.5,206.25,-37.5,3.75,-75,-71.25,-48.75,15,18.333333333333332
1726,135,157.5,-52.5,-11.25,-93.75,-90,-71.25,-3.75,-3.3333333333333335
1727,131.25,168.75,-37.5,-3.75,-86.25,-86.25,-67.5,-3.75,1.6666666666666667
1728,138.75,191.25,-22.5,11.25,-75,-75,-60,0,12.083333333333334
1729,138.75,183.75,-22.5,11.25,-78.75,-82.5,-71.25,-7.5,7.916666666666667
1730,142.5,187.5,-18.75,15,-78.75,-82.5,-71.25,-11.25,9.166666666666666
1731,150,213.75,0,30,-63.75,-75,-63.75,0,21.25
1732,142.5,210,-3.75,30,-67.5,-78.75,-71.25,-7.5,17.083333333333332
1733,120,191.25,-7.5,26.25,-71.25,-86.25,-75,-15,9.166666666666666
1734,120,198.75,3.75,33.75,-60,-71.25,-63.75,-3.75,17.5
1735,101.25,187.5,11.25,41.25,-52.5,-63.75,-56.25,3.75,19.166666666666668
1736,93.75,176.25,11.25,41.25,-52.5,-60,-52.5,0,17.5
1737,105,168.75,7.5,33.75,-60,-67.5,-63.75,-15,12.083333333333334
1738,93.75,153.75,11.25,33.75,-60,-67.5,-67.5,-22.5,8.333333333333334
1739,63.75,142.5,18.75,37.5,-52.5,-67.5,-67.5,-22.5,5.833333333333333
1740,75,161.25,33.75,48.75,-41.25,-56.25,-60,-15,16.25
1741,86.25,161.25,30,41.25,-48.75,-63.75,-67.5,-26.25,12.5
1742,78.75,150,18.75,33.75,-56.25,-75,-78.75,-33.75,4.166666666666667
1743,75,153.75,22.5,37.5,-56.25,-75,-78.75,-33.75,5.0
1744,63.75,153.75,22.5,37.5,-56.25,-75,-78.75,-33.75,3.75
1745,48.75,146.25,18.75,33.75,-60,-78.75,-86.25,-37.5,-1.6666666666666667
1746,52.5,150,18.75,30,-52.5,-75,-82.5,-37.5,0.4166666666666667
1747,63.75,157.5,22.5,30,-52.5,-75,-82.5,-41.25,2.5
1748,45,138.75,15,22.5,-63.75,-78.75,-90,-45,-6.25
1749,26.25,120,15,18.75,-63.75,-82.5,-90,-48.75,-11.666666666666666
1750,18.75,112.5,15,15,-67.5,-82.5,-90,-52.5,-14.583333333333334
1751,11.25,101.25,15,11.25,-67.5,-82.5,-93.75,-60,-18.333333333333332
1752,18.75,108.75,18.75,11.25,-63.75,-82.5,-93.75,-63.75,-16.25
1753,26.25,123.75,26.25,18.75,-60,-82.5,-93.75,-60,-11.25
1754,7.5,108.75,22.5,11.25,-67.5,-90,-101.25,-67.5,-19.583333333333332
1755,0,108.75,26.25,15,-67.5,-90,-101.25,-67.5,-19.583333333333332
1756,18.75,127.5,30,18.75,-60,-82.5,-93.75,-60,-11.25
1757,41.25,138.75,30,18.75,-60,-78.75,-90,-56.25,-6.25
1758,60,146.25,26.25,15,-63.75,-82.5,-93.75,-60,-5.833333333333333
1759,48.75,146.25,30,15,-63.75,-82.5,-93.75,-56.25,-6.25
1760,-3.75,120,22.5,3.75,-67.5,-90,-97.5,-63.75,-19.583333333333332
1761,-18.75,108.75,18.75,0,-71.25,-90,-101.25,-67.5,-24.583333333333332
1762,-33.75,71.25,3.75,-22.5,-93.75,-112.5,-123.75,-86.25,-44.166666666666664
1763,-67.5,15,-15,-48.75,-120,-135,-146.25,-112.5,-70.0
1764,-56.25,26.25,-3.75,-41.25,-112.5,-127.5,-142.5,-108.75,-62.916666666666664
1765,-33.75,63.75,15,-18.75,-90,-108.75,-123.75,-90,-42.916666666666664
1766,-45,67.5,22.5,-15,-86.25,-105,-120,-82.5,-40.416666666666664
1767,-48.75,71.25,22.5,-11.25,-86.25,-105,-120,-82.5,-40.0
1768,-45,75,18.75,-11.25,-86.25,-108.75,-123.75,-86.25,-40.833333333333336
1769,-30,86.25,15,-15,-86.25,-108.75,-123.75,-86.25,-38.75
1770,-7.5,108.75,18.75,-11.25,-82.5,-101.25,-116.25,-78.75,-30.0
1771,-11.25,112.5,22.5,-7.5,-75,-93.75,-108.75,-71.25,-25.833333333333332
1772,-15,105,18.75,-7.5,-78.75,-97.5,-112.5,-71.25,-28.75
1773,-18.75,101.25,22.5,-7.5,-78.75,-97.5,-112.5,-75,-29.583333333333332
1774,-18.75,101.25,30,-7.5,-75,-93.75,-108.75,-71.25,-27.083333333333332
1775,-11.25,86.25,18.75,-18.75,-86.25,-105,-120,-86.25,-35.833333333333336
1776,-11.25,82.5,15,-22.5,-90,-112.5,-127.5,-90,-39.583333333333336
1777,-30,75,15,-22.5,-90,-112.5,-131.25,-93.75,-43.333333333333336
1778,-37.5,67.5,18.75,-26.25,-93.75,-120,-131.25,-93.75,-46.25
1779,-18.75,93.75,30,-7.5,-78.75,-101.25,-116.25,-82.5,-31.25
1780,-15,108.75,30,3.75,-71.25,-90,-105,-75,-23.75
1781,-26.25,93.75,22.5,-3.75,-71.25,-90,-105,-75,-28.333333333333332
1782,-15,97.5,18.75,-11.25,-78.75,-93.75,-112.5,-86.25,-31.25
1783,-30,93.75,18.75,-11.25,-78.75,-97.5,-112.5,-86.25,-33.75
1784,-45,86.25,18.75,-11.25,-78.75,-97.5,-116.25,-86.25,-36.666666666666664
1785,-30,82.5,15,-15,-82.5,-101.25,-120,-90,-37.916666666666664
1786,-30,67.5,7.5,-26.25,-90,-108.75,-127.5,-97.5,-45.0
1787,-33.75,67.5,15,-22.5,-82.5,-101.25,-120,-90,-40.833333333333336
1788,-18.75,86.25,22.5,-11.25,-75,-97.5,-112.5,-82.5,-32.083333333333336
1789,-11.25,101.25,33.75,0,-63.75,-86.25,-105,-75,-22.916666666666668
1790,11.25,123.75,41.25,7.5,-56.25,-78.75,-97.5,-71.25,-13.333333333333334
1791,-7.5,112.5,33.75,3.75,-63.75,-90,-105,-78.75,-21.666666666666668
1792,-48.75,105,41.25,15,-52.5,-78.75,-97.5,-71.25,-20.833333333333332
1793,-7.5,135,37.5,11.25,-52.5,-82.5,-101.25,-71.25,-14.583333333333334
1794,18.75,123.75,15,-7.5,-71.25,-93.75,-112.5,-86.25,-23.75
1795,-22.5,63.75,0,-26.25,-86.25,-108.75,-127.5,-101.25,-45.416666666666664
1796,-52.5,45,-3.75,-22.5,-86.25,-105,-123.75,-97.5,-49.583333333333336
1797,-52.5,52.5,3.75,-15,-78.75,-97.5,-116.25,-90,-43.75
1798,-56.25,52.5,11.25,-15,-75,-97.5,-116.25,-90,-42.916666666666664
1799,-48.75,56.25,15,-15,-75,-93.75,-116.25,-90,-40.833333333333336
1800,-48.75,60,18.75,-11.25,-71.25,-90,-112.5,-86.25,-37.916666666666664
1801,-33.75,78.75,18.75,-3.75,-63.75,-86.25,-105,-82.5,-30.833333333333332
1802,11.25,120,22.5,3.75,-56.25,-78.75,-97.5,-71.25,-16.25
1803,22.5,138.75,26.25,11.25,-52.5,-75,-90,-67.5,-9.583333333333334
1804,-7.5,116.25,22.5,7.5,-56.25,-78.75,-97.5,-71.25,-18.333333333333332
1805,-30,93.75,11.25,-3.75,-63.75,-86.25,-105,-82.5,-29.583333333333332
1806,-30,93.75,7.5,-7.5,-67.5,-90,-108.75,-86.25,-32.083333333333336
1807,0,116.25,11.25,-3.75,-63.75,-82.5,-105,-82.5,-23.333333333333332
1808,18.75,123.75,11.25,0,-60,-82.5,-105,-78.75,-19.166666666666668
1809,3.75,105,0,-15,-75,-93.75,-116.25,-90,-31.25
1810,-11.25,90,0,-18.75,-75,-93.75,-116.25,-90,-35.0
1811,0,93.75,11.25,-11.25,-67.5,-86.25,-108.75,-82.5,-27.916666666666668
1812,-7.5,101.25,22.5,0,-56.25,-71.25,-93.75,-71.25,-19.583333333333332
1813,-11.25,108.75,30,7.5,-45,-63.75,-86.25,-63.75,-13.75
1814,-3.75,105,26.25,3.75,-52.5,-67.5,-90,-71.25,-16.666666666666668
1815,-18.75,101.25,18.75,0,-60,-75,-97.5,-75,-22.916666666666668
1816,-37.5,105,22.5,11.25,-48.75,-67.5,-90,-63.75,-18.75
1817,-48.75,105,18.75,11.25,-45,-67.5,-90,-63.75,-20.0
1818,-30,90,0,-15,-67.5,-86.25,-108.75,-86.25,-33.75
1819,-22.5,86.25,-3.75,-18.75,-71.25,-90,-112.5,-86.25,-35.416666666666664
