samplenr,I,II,V1,V2,V3,V4,V5,V6,measurement
0,82.5,75,-41.25,18.75,-56.25,-56.25,-56.25,-63.75,-10.833333333333334
1,90,82.5,-41.25,22.5,-63.75,-63.75,-63.75,-71.25,-12.083333333333334
2,101.25,90,-45,26.25,-75,-75,-75,-82.5,-15.0
3,108.75,93.75,-45,33.75,-82.5,-82.5,-78.75,-90,-15.833333333333334
4,116.25,93.75,-45,37.5,-86.25,-86.25,-86.25,-93.75,-16.666666666666668
5,120,90,-45,41.25,-90,-90,-90,-93.75,-17.5
6,120,86.25,-41.25,41.25,-93.75,-97.5,-93.75,-97.5,-19.583333333333332
7,123.75,82.5,-41.25,41.25,-97.5,-101.25,-97.5,-97.5,-20.833333333333332
8,127.5,75,-41.25,41.25,-101.25,-105,-101.25,-105,-23.333333333333332
9,131.25,75,-37.5,41.25,-108.75,-116.25,-108.75,-108.75,-25.833333333333332
10,131.25,75,-41.25,33.75,-116.25,-123.75,-116.25,-112.5,-30.0
11,127.5,75,-37.5,33.75,-123.75,-127.5,-123.75,-120,-32.916666666666664
12,120,78.75,-37.5,30,-127.5,-135,-127.5,-123.75,-35.833333333333336
13,112.5,86.25,-30,26.25,-127.5,-135,-131.25,-131.25,-36.666666666666664
14,101.25,86.25,-30,22.5,-131.25,-138.75,-135,-135,-40.0
15,93.75,90,-26.25,18.75,-131.25,-142.5,-138.75,-138.75,-41.666666666666664
16,82.5,90,-22.5,15,-135,-142.5,-142.5,-142.5,-44.166666666666664
17,75,90,-22.5,11.25,-135,-146.25,-142.5,-146.25,-46.25
18,71.25,93.75,-18.75,7.5,-138.75,-150,-146.25,-150,-47.916666666666664
19,67.5,93.75,-18.75,7.5,-142.5,-157.5,-153.75,-153.75,-50.833333333333336
20,67.5,93.75,-18.75,0,-150,-161.25,-161.25,-165,-55.0
21,67.5,93.75,-18.75,-3.75,-157.5,-168.75,-168.75,-168.75,-58.333333333333336
22,67.5,93.75,-22.5,-7.5,-161.25,-176.25,-176.25,-176.25,-62.083333333333336
23,60,90,-18.75,-11.25,-168.75,-180,-180,-183.75,-65.83333333333333
24,56.25,82.5,-22.5,-15,-172.5,-183.75,-180,-183.75,-68.75
25,48.75,78.75,-22.5,-22.5,-176.25,-187.5,-183.75,-187.5,-72.5
26,37.5,67.5,-18.75,-22.5,-180,-187.5,-183.75,-191.25,-75.41666666666667
27,26.25,56.25,-18.75,-30,-176.25,-187.5,-183.75,-191.25,-78.33333333333333
28,15,45,-15,-26.25,-176.25,-183.75,-180,-187.5,-78.75
29,7.5,33.75,-11.25,-30,-176.25,-183.75,-183.75,-191.25,-81.66666666666667
30,0,22.5,-7.5,-30,-172.5,-180,-180,-187.5,-81.66666666666667
31,0,15,-3.75,-33.75,-176.25,-183.75,-180,-191.25,-83.75
32,-3.75,7.5,0,-30,-172.5,-183.75,-180,-187.5,-83.33333333333333
33,0,0,0,-33.75,-176.25,-183.75,-183.75,-187.5,-85.0
34,-7.5,-7.5,0,-37.5,-180,-191.25,-187.5,-191.25,-89.16666666666667
35,-7.5,-11.25,0,-41.25,-180,-191.25,-191.25,-191.25,-90.41666666666667
36,-15,-11.25,0,-41.25,-183.75,-195,-195,-195,-92.91666666666667
37,-18.75,-18.75,0,-45,-187.5,-198.75,-195,-198.75,-95.83333333333333
38,-30,-18.75,0,-48.75,-191.25,-198.75,-198.75,-202.5,-98.75
39,-33.75,-18.75,0,-56.25,-195,-202.5,-202.5,-206.25,-101.66666666666667
40,-41.25,-26.25,-3.75,-63.75,-198.75,-206.25,-206.25,-206.25,-105.83333333333333
41,-48.75,-30,-7.5,-71.25,-206.25,-210,-206.25,-210,-110.0
42,-48.75,-33.75,-11.25,-75,-206.25,-213.75,-210,-213.75,-112.5
43,-52.5,-37.5,-11.25,-78.75,-213.75,-217.5,-213.75,-217.5,-115.83333333333333
44,-52.5,-37.5,-15,-86.25,-221.25,-217.5,-217.5,-221.25,-118.75
45,-52.5,-37.5,-22.5,-93.75,-221.25,-225,-221.25,-228.75,-122.5
46,-48.75,-37.5,-26.25,-97.5,-228.75,-228.75,-228.75,-228.75,-125.0
47,-56.25,-30,-26.25,-101.25,-232.5,-232.5,-228.75,-228.75,-126.25
48,-56.25,-30,-33.75,-105,-236.25,-236.25,-236.25,-232.5,-129.58333333333334
49,-60,-26.25,-37.5,-108.75,-240,-240,-236.25,-236.25,-131.66666666666666
50,-63.75,-22.5,-41.25,-112.5,-240,-240,-236.25,-236.25,-132.5
51,-63.75,-26.25,-37.5,-116.25,-240,-240,-240,-236.25,-133.33333333333334
52,-67.5,-30,-45,-116.25,-240,-240,-236.25,-240,-135.0
53,-71.25,-33.75,-37.5,-116.25,-243.75,-236.25,-236.25,-240,-135.0
54,-71.25,-41.25,-37.5,-116.25,-240,-236.25,-236.25,-236.25,-135.0
55,-75,-45,-37.5,-116.25,-240,-236.25,-236.25,-240,-136.25
56,-71.25,-48.75,-33.75,-116.25,-240,-236.25,-236.25,-240,-135.83333333333334
57,-75,-52.5,-30,-112.5,-236.25,-236.25,-232.5,-236.25,-134.58333333333334
58,-71.25,-52.5,-33.75,-112.5,-236.25,-232.5,-232.5,-240,-134.58333333333334
59,-71.25,-56.25,-26.25,-112.5,-232.5,-232.5,-232.5,-232.5,-132.91666666666666
60,-71.25,-60,-26.25,-112.5,-232.5,-232.5,-228.75,-232.5,-132.91666666666666
61,-71.25,-60,-22.5,-108.75,-232.5,-228.75,-228.75,-232.5,-131.66666666666666
62,-67.5,-56.25,-26.25,-112.5,-232.5,-228.75,-228.75,-232.5,-131.66666666666666
63,-67.5,-52.5,-30,-116.25,-236.25,-232.5,-232.5,-236.25,-133.75
64,-67.5,-45,-30,-116.25,-240,-236.25,-232.5,-236.25,-133.75
65,-71.25,-37.5,-37.5,-120,-240,-236.25,-236.25,-236.25,-135.0
66,-67.5,-26.25,-41.25,-123.75,-243.75,-240,-236.25,-243.75,-135.83333333333334
67,-67.5,-22.5,-45,-127.5,-243.75,-243.75,-236.25,-243.75,-136.66666666666666
68,-67.5,-18.75,-48.75,-127.5,-247.5,-247.5,-236.25,-243.75,-137.5
69,-63.75,-18.75,-52.5,-127.5,-247.5,-247.5,-236.25,-243.75,-137.5
70,-67.5,-22.5,-48.75,-127.5,-247.5,-247.5,-240,-240,-137.91666666666666
71,-67.5,-26.25,-48.75,-127.5,-243.75,-243.75,-236.25,-240,-137.08333333333334
72,-63.75,-33.75,-48.75,-123.75,-243.75,-243.75,-240,-240,-137.5
73,-63.75,-37.5,-48.75,-123.75,-240,-240,-240,-236.25,-136.66666666666666
74,-60,-37.5,-48.75,-123.75,-240,-240,-240,-236.25,-136.25
75,-60,-37.5,-48.75,-123.75,-240,-236.25,-236.25,-240,-135.83333333333334
76,-56.25,-33.75,-48.75,-120,-240,-236.25,-236.25,-240,-134.58333333333334
77,-56.25,-26.25,-48.75,-123.75,-236.25,-232.5,-236.25,-236.25,-132.91666666666666
78,-56.25,-22.5,-45,-123.75,-240,-232.5,-232.5,-240,-132.5
79,-56.25,-18.75,-48.75,-120,-236.25,-232.5,-236.25,-236.25,-131.66666666666666
80,-52.5,-15,-48.75,-120,-236.25,-228.75,-228.75,-236.25,-129.58333333333334
81,-52.5,-11.25,-45,-120,-232.5,-228.75,-225,-232.5,-127.5
82,-56.25,-11.25,-45,-116.25,-232.5,-228.75,-225,-232.5,-127.5
83,-52.5,-11.25,-45,-116.25,-228.75,-228.75,-225,-232.5,-126.66666666666667
84,-56.25,-11.25,-45,-116.25,-225,-225,-221.25,-228.75,-125.41666666666667
85,-60,-11.25,-45,-116.25,-225,-225,-217.5,-221.25,-124.58333333333333
86,-60,-15,-37.5,-108.75,-221.25,-221.25,-217.5,-221.25,-122.5
87,-60,-11.25,-41.25,-112.5,-225,-221.25,-217.5,-221.25,-123.33333333333333
88,-60,-18.75,-33.75,-105,-221.25,-221.25,-213.75,-217.5,-121.25
89,-60,-15,-33.75,-105,-221.25,-221.25,-217.5,-217.5,-121.25
90,-63.75,-15,-33.75,-101.25,-221.25,-221.25,-217.5,-221.25,-121.66666666666667
91,-63.75,-15,-41.25,-108.75,-221.25,-221.25,-217.5,-221.25,-123.33333333333333
92,-60,-15,-37.5,-105,-221.25,-221.25,-217.5,-221.25,-122.08333333333333
93,-63.75,-18.75,-45,-108.75,-221.25,-221.25,-217.5,-221.25,-124.16666666666667
94,-63.75,-15,-45,-112.5,-221.25,-221.25,-221.25,-225,-125.0
95,-63.75,-15,-48.75,-108.75,-221.25,-221.25,-217.5,-225,-124.58333333333333
96,-63.75,-15,-48.75,-108.75,-225,-225,-217.5,-228.75,-125.83333333333333
97,-63.75,-15,-48.75,-112.5,-225,-225,-217.5,-228.75,-126.25
98,-63.75,-11.25,-48.75,-112.5,-228.75,-228.75,-221.25,-228.75,-127.08333333333333
99,-63.75,-11.25,-48.75,-116.25,-225,-225,-221.25,-225,-126.25
100,-63.75,-7.5,-45,-116.25,-228.75,-225,-221.25,-228.75,-126.25
101,-60,-7.5,-48.75,-112.5,-228.75,-225,-221.25,-221.25,-125.0
102,-60,-3.75,-45,-116.25,-228.75,-225,-221.25,-221.25,-124.58333333333333
103,-56.25,0,-45,-116.25,-228.75,-228.75,-221.25,-221.25,-124.16666666666667
104,-56.25,3.75,-48.75,-116.25,-232.5,-225,-221.25,-225,-124.58333333333333
105,-52.5,3.75,-48.75,-120,-232.5,-225,-221.25,-221.25,-124.16666666666667
106,-52.5,0,-52.5,-116.25,-232.5,-225,-221.25,-225,-125.0
107,-52.5,0,-56.25,-116.25,-228.75,-225,-217.5,-225,-124.58333333333333
108,-52.5,-3.75,-48.75,-116.25,-232.5,-221.25,-217.5,-225,-124.16666666666667
109,-52.5,-11.25,-52.5,-120,-228.75,-225,-217.5,-225,-125.83333333333333
110,-52.5,-22.5,-52.5,-120,-228.75,-221.25,-213.75,-225,-126.25
111,-56.25,-26.25,-52.5,-120,-225,-221.25,-213.75,-225,-126.66666666666667
112,-56.25,-26.25,-52.5,-120,-228.75,-221.25,-213.75,-225,-127.08333333333333
113,-60,-22.5,-56.25,-123.75,-228.75,-221.25,-217.5,-221.25,-127.91666666666667
114,-60,-15,-60,-127.5,-228.75,-225,-217.5,-228.75,-129.16666666666666
115,-60,-7.5,-60,-123.75,-236.25,-225,-221.25,-228.75,-129.16666666666666
116,-60,3.75,-63.75,-131.25,-236.25,-225,-225,-228.75,-129.58333333333334
117,-56.25,11.25,-63.75,-131.25,-240,-228.75,-228.75,-232.5,-130.0
118,-56.25,18.75,-63.75,-135,-243.75,-232.5,-232.5,-232.5,-130.83333333333334
119,-56.25,18.75,-67.5,-135,-243.75,-232.5,-232.5,-240,-132.08333333333334
120,-48.75,11.25,-67.5,-135,-243.75,-232.5,-232.5,-240,-132.08333333333334
121,-48.75,7.5,-67.5,-135,-247.5,-236.25,-232.5,-240,-133.33333333333334
122,-48.75,0,-63.75,-131.25,-243.75,-236.25,-236.25,-240,-133.33333333333334
123,-45,-11.25,-67.5,-135,-243.75,-240,-232.5,-236.25,-134.58333333333334
124,-45,-18.75,-63.75,-131.25,-240,-236.25,-232.5,-236.25,-133.75
125,-48.75,-26.25,-63.75,-131.25,-240,-236.25,-228.75,-232.5,-134.16666666666666
126,-45,-33.75,-60,-131.25,-240,-236.25,-228.75,-232.5,-134.16666666666666
127,-45,-37.5,-60,-131.25,-240,-232.5,-225,-228.75,-133.33333333333334
128,-48.75,-33.75,-63.75,-131.25,-240,-232.5,-225,-225,-133.33333333333334
129,-48.75,-30,-60,-131.25,-240,-228.75,-225,-225,-132.08333333333334
130,-52.5,-30,-56.25,-135,-243.75,-232.5,-221.25,-221.25,-132.5
131,-52.5,-26.25,-60,-131.25,-243.75,-228.75,-221.25,-221.25,-131.66666666666666
132,-52.5,-30,-60,-131.25,-247.5,-232.5,-217.5,-221.25,-132.5
133,-52.5,-30,-56.25,-131.25,-243.75,-232.5,-217.5,-221.25,-131.66666666666666
134,-48.75,-30,-60,-131.25,-243.75,-228.75,-217.5,-221.25,-131.25
135,-52.5,-37.5,-60,-131.25,-243.75,-236.25,-217.5,-221.25,-133.33333333333334
136,-52.5,-37.5,-60,-135,-243.75,-236.25,-221.25,-221.25,-134.16666666666666
137,-56.25,-41.25,-60,-135,-247.5,-240,-225,-221.25,-136.25
138,-56.25,-41.25,-63.75,-138.75,-247.5,-243.75,-225,-225,-137.91666666666666
139,-60,-41.25,-67.5,-146.25,-251.25,-247.5,-232.5,-228.75,-141.66666666666666
140,-63.75,-41.25,-67.5,-146.25,-258.75,-251.25,-232.5,-232.5,-143.75
141,-63.75,-37.5,-67.5,-150,-258.75,-255,-236.25,-236.25,-145.0
142,-67.5,-33.75,-71.25,-153.75,-262.5,-255,-243.75,-240,-147.5
143,-67.5,-30,-75,-157.5,-273.75,-258.75,-247.5,-243.75,-150.41666666666666
144,-63.75,-22.5,-75,-161.25,-273.75,-258.75,-251.25,-243.75,-150.0
145,-60,-22.5,-78.75,-161.25,-273.75,-262.5,-255,-251.25,-151.66666666666666
146,-60,-18.75,-78.75,-161.25,-277.5,-262.5,-255,-247.5,-151.25
147,-56.25,-18.75,-82.5,-161.25,-277.5,-266.25,-251.25,-247.5,-151.25
148,-60,-22.5,-78.75,-161.25,-273.75,-262.5,-247.5,-243.75,-150.0
149,-63.75,-30,-82.5,-161.25,-273.75,-266.25,-251.25,-243.75,-152.5
150,-63.75,-41.25,-78.75,-161.25,-273.75,-262.5,-247.5,-240,-152.08333333333334
151,-67.5,-48.75,-78.75,-161.25,-273.75,-266.25,-247.5,-240,-153.75
152,-67.5,-60,-75,-161.25,-273.75,-262.5,-247.5,-243.75,-154.58333333333334
153,-75,-67.5,-78.75,-165,-277.5,-266.25,-247.5,-240,-157.5
154,-75,-78.75,-75,-161.25,-277.5,-262.5,-247.5,-240,-157.5
155,-75,-78.75,-75,-165,-277.5,-262.5,-251.25,-243.75,-158.75
156,-78.75,-78.75,-75,-161.25,-277.5,-262.5,-251.25,-243.75,-158.75
157,-75,-75,-75,-165,-277.5,-262.5,-251.25,-243.75,-158.33333333333334
158,-71.25,-71.25,-75,-165,-281.25,-266.25,-247.5,-243.75,-157.91666666666666
159,-71.25,-60,-75,-165,-281.25,-266.25,-251.25,-247.5,-157.5
160,-67.5,-48.75,-75,-165,-285,-270,-251.25,-247.5,-156.66666666666666
161,-71.25,-41.25,-78.75,-168.75,-285,-270,-251.25,-247.5,-157.08333333333334
162,-67.5,-30,-78.75,-168.75,-285,-270,-251.25,-247.5,-155.41666666666666
163,-63.75,-18.75,-82.5,-168.75,-288.75,-270,-255,-247.5,-155.0
164,-60,-7.5,-82.5,-172.5,-292.5,-273.75,-251.25,-247.5,-154.16666666666666
165,-63.75,0,-86.25,-176.25,-292.5,-277.5,-255,-251.25,-155.83333333333334
166,-60,11.25,-90,-176.25,-296.25,-277.5,-258.75,-255,-155.83333333333334
167,-60,15,-86.25,-176.25,-292.5,-277.5,-262.5,-251.25,-154.58333333333334
168,-60,22.5,-82.5,-176.25,-296.25,-277.5,-262.5,-255,-154.16666666666666
169,-63.75,22.5,-82.5,-172.5,-296.25,-277.5,-258.75,-251.25,-153.33333333333334
170,-60,22.5,-71.25,-168.75,-288.75,-273.75,-258.75,-251.25,-150.0
171,-60,15,-63.75,-161.25,-285,-270,-258.75,-247.5,-147.91666666666666
172,-63.75,7.5,-52.5,-153.75,-277.5,-266.25,-251.25,-243.75,-144.58333333333334
173,-63.75,0,-41.25,-142.5,-266.25,-255,-247.5,-236.25,-139.16666666666666
174,-60,-11.25,-30,-135,-258.75,-255,-240,-228.75,-135.41666666666666
175,-63.75,-22.5,-18.75,-127.5,-255,-247.5,-232.5,-225,-132.5
176,-71.25,-26.25,-15,-123.75,-251.25,-243.75,-228.75,-225,-131.66666666666666
177,-71.25,-30,-15,-123.75,-247.5,-240,-225,-221.25,-130.41666666666666
178,-67.5,-26.25,-11.25,-120,-247.5,-240,-228.75,-225,-129.58333333333334
179,-67.5,-22.5,-11.25,-120,-243.75,-236.25,-225,-225,-127.91666666666667
180,-67.5,-18.75,-7.5,-120,-247.5,-240,-228.75,-221.25,-127.91666666666667
181,-63.75,-11.25,-11.25,-120,-243.75,-232.5,-225,-221.25,-125.41666666666667
182,-60,0,-3.75,-116.25,-243.75,-236.25,-228.75,-221.25,-123.33333333333333
183,-56.25,7.5,-3.75,-116.25,-243.75,-236.25,-228.75,-225,-122.5
184,-56.25,18.75,0,-116.25,-243.75,-236.25,-228.75,-221.25,-120.41666666666667
185,-52.5,33.75,0,-112.5,-243.75,-236.25,-228.75,-221.25,-117.91666666666667
186,-52.5,45,-3.75,-112.5,-243.75,-240,-225,-221.25,-117.08333333333333
187,-48.75,56.25,-7.5,-116.25,-243.75,-240,-225,-225,-116.66666666666667
188,-45,63.75,-15,-116.25,-243.75,-236.25,-225,-217.5,-115.0
189,-45,63.75,-22.5,-120,-247.5,-236.25,-221.25,-217.5,-116.25
190,-41.25,60,-33.75,-120,-243.75,-236.25,-217.5,-213.75,-116.25
191,-37.5,60,-45,-123.75,-243.75,-232.5,-217.5,-210,-116.66666666666667
192,-30,56.25,-56.25,-127.5,-240,-228.75,-213.75,-206.25,-116.25
193,-26.25,56.25,-71.25,-135,-243.75,-228.75,-213.75,-206.25,-118.75
194,-15,56.25,-78.75,-138.75,-243.75,-228.75,-213.75,-206.25,-118.75
195,-11.25,56.25,-90,-146.25,-247.5,-232.5,-213.75,-206.25,-121.25
196,-3.75,52.5,-93.75,-150,-251.25,-232.5,-213.75,-206.25,-122.08333333333333
197,0,52.5,-101.25,-153.75,-258.75,-240,-221.25,-206.25,-125.41666666666667
198,0,45,-108.75,-157.5,-258.75,-243.75,-225,-210,-128.75
199,0,37.5,-108.75,-161.25,-266.25,-247.5,-225,-217.5,-132.08333333333334
200,-7.5,30,-112.5,-165,-270,-251.25,-228.75,-221.25,-136.25
201,-7.5,15,-108.75,-168.75,-273.75,-258.75,-236.25,-228.75,-140.83333333333334
202,-11.25,3.75,-116.25,-168.75,-273.75,-258.75,-240,-232.5,-144.16666666666666
203,-18.75,-3.75,-112.5,-172.5,-277.5,-262.5,-243.75,-232.5,-147.08333333333334
204,-26.25,-7.5,-116.25,-172.5,-277.5,-262.5,-247.5,-236.25,-149.58333333333334
205,-33.75,-15,-112.5,-176.25,-277.5,-266.25,-247.5,-240,-152.08333333333334
206,-41.25,-18.75,-108.75,-176.25,-281.25,-266.25,-251.25,-243.75,-154.16666666666666
207,-45,-15,-108.75,-180,-281.25,-270,-251.25,-243.75,-155.0
208,-52.5,-18.75,-105,-180,-285,-270,-251.25,-243.75,-156.25
209,-52.5,-18.75,-105,-180,-285,-277.5,-255,-243.75,-157.5
210,-56.25,-15,-101.25,-183.75,-288.75,-277.5,-255,-251.25,-158.75
211,-56.25,-18.75,-101.25,-187.5,-288.75,-281.25,-258.75,-251.25,-160.41666666666666
212,-56.25,-18.75,-101.25,-187.5,-296.25,-285,-262.5,-255,-162.5
213,-60,-22.5,-101.25,-191.25,-300,-288.75,-262.5,-258.75,-165.0
214,-60,-22.5,-105,-195,-300,-292.5,-266.25,-262.5,-167.08333333333334
215,-60,-30,-101.25,-198.75,-300,-296.25,-270,-266.25,-169.16666666666666
216,-63.75,-33.75,-105,-198.75,-300,-296.25,-273.75,-266.25,-170.83333333333334
217,-63.75,-37.5,-108.75,-202.5,-303.75,-296.25,-273.75,-270,-172.91666666666666
218,-63.75,-45,-108.75,-202.5,-303.75,-300,-277.5,-266.25,-174.16666666666666
219,-63.75,-48.75,-108.75,-202.5,-307.5,-296.25,-277.5,-270,-175.0
220,-67.5,-52.5,-108.75,-206.25,-307.5,-300,-277.5,-270,-176.66666666666666
221,-71.25,-56.25,-108.75,-206.25,-311.25,-303.75,-277.5,-270,-178.33333333333334
222,-71.25,-56.25,-108.75,-202.5,-307.5,-303.75,-277.5,-270,-177.5
223,-75,-60,-108.75,-202.5,-307.5,-300,-281.25,-270,-178.33333333333334
224,-78.75,-63.75,-108.75,-206.25,-307.5,-300,-281.25,-270,-179.58333333333334
225,-78.75,-71.25,-105,-202.5,-307.5,-300,-281.25,-270,-179.58333333333334
226,-82.5,-75,-105,-202.5,-307.5,-300,-281.25,-273.75,-180.83333333333334
227,-82.5,-78.75,-105,-202.5,-307.5,-296.25,-281.25,-270,-180.41666666666666
228,-82.5,-82.5,-105,-202.5,-303.75,-296.25,-273.75,-273.75,-180.0
229,-86.25,-78.75,-105,-202.5,-303.75,-296.25,-277.5,-266.25,-179.58333333333334
230,-86.25,-82.5,-105,-198.75,-303.75,-292.5,-270,-266.25,-178.33333333333334
231,-86.25,-78.75,-108.75,-202.5,-300,-296.25,-270,-266.25,-178.75
232,-86.25,-75,-108.75,-198.75,-303.75,-288.75,-270,-266.25,-177.5
233,-86.25,-71.25,-108.75,-198.75,-300,-292.5,-273.75,-266.25,-177.5
234,-82.5,-67.5,-108.75,-198.75,-300,-292.5,-270,-266.25,-176.25
235,-82.5,-67.5,-112.5,-198.75,-303.75,-296.25,-277.5,-266.25,-178.33333333333334
236,-82.5,-67.5,-108.75,-202.5,-303.75,-303.75,-281.25,-270,-180.0
237,-78.75,-71.25,-108.75,-198.75,-307.5,-303.75,-281.25,-270,-180.0
238,-82.5,-71.25,-101.25,-195,-307.5,-311.25,-288.75,-273.75,-181.25
239,-78.75,-78.75,-93.75,-187.5,-307.5,-318.75,-300,-281.25,-182.91666666666666
240,-78.75,-78.75,-78.75,-180,-311.25,-326.25,-307.5,-292.5,-183.75
241,-82.5,-86.25,-60,-157.5,-307.5,-333.75,-315,-303.75,-182.91666666666666
242,-75,-90,-26.25,-135,-303.75,-337.5,-326.25,-315,-178.75
243,-71.25,-93.75,3.75,-93.75,-296.25,-337.5,-333.75,-330,-172.5
244,-67.5,-105,48.75,-48.75,-277.5,-337.5,-337.5,-341.25,-162.91666666666666
245,-56.25,-108.75,97.5,7.5,-258.75,-333.75,-341.25,-345,-148.75
246,-41.25,-108.75,146.25,63.75,-232.5,-322.5,-337.5,-345,-130.83333333333334
247,-22.5,-97.5,195,127.5,-191.25,-307.5,-322.5,-337.5,-106.25
248,0,-75,243.75,195,-150,-281.25,-307.5,-318.75,-77.08333333333333
249,33.75,-41.25,281.25,258.75,-101.25,-243.75,-273.75,-292.5,-42.083333333333336
250,71.25,7.5,307.5,318.75,-41.25,-198.75,-232.5,-251.25,-2.0833333333333335
251,116.25,75,326.25,375,18.75,-135,-172.5,-198.75,45.0
252,161.25,153.75,330,416.25,86.25,-60,-97.5,-131.25,95.41666666666667
253,213.75,243.75,322.5,453.75,157.5,26.25,-11.25,-48.75,150.83333333333334
254,266.25,348.75,296.25,480,232.5,127.5,93.75,45,210.0
255,318.75,465,258.75,483.75,311.25,243.75,213.75,161.25,272.9166666666667
256,375,585,206.25,476.25,390,367.5,345,285,336.6666666666667
257,420,716.25,135,453.75,468.75,498.75,491.25,416.25,400.0
258,468.75,843.75,52.5,408.75,547.5,641.25,641.25,558.75,462.5
259,502.5,963.75,-45,345,622.5,776.25,795,705,518.3333333333334
260,536.25,1080,-153.75,258.75,682.5,915,948.75,851.25,568.75
261,555,1185,-273.75,150,738.75,1046.25,1087.5,982.5,607.9166666666666
262,566.25,1275,-393.75,33.75,780,1162.5,1215,1098.75,637.5
263,558.75,1338.75,-510,-93.75,810,1260,1323.75,1188.75,652.9166666666666
264,543.75,1376.25,-618.75,-221.25,817.5,1327.5,1395,1245,651.6666666666666
265,506.25,1383.75,-716.25,-348.75,806.25,1361.25,1428.75,1267.5,632.0833333333334
266,453.75,1357.5,-795,-465,765,1350,1417.5,1245,592.0833333333334
267,390,1293.75,-851.25,-573.75,697.5,1293.75,1361.25,1188.75,533.3333333333334
268,311.25,1200,-892.5,-671.25,596.25,1188.75,1252.5,1087.5,452.5
269,228.75,1076.25,-915,-757.5,465,1035,1102.5,952.5,354.1666666666667
270,142.5,933.75,-926.25,-832.5,315,847.5,918.75,795,243.75
271,60,787.5,-918.75,-892.5,153.75,637.5,716.25,626.25,130.0
272,-11.25,637.5,-900,-933.75,-3.75,427.5,510,453.75,20.0
273,-67.5,495,-873.75,-952.5,-142.5,228.75,318.75,292.5,-77.91666666666667
274,-116.25,371.25,-836.25,-948.75,-258.75,63.75,157.5,150,-157.5
275,-146.25,266.25,-791.25,-926.25,-337.5,-60,26.25,37.5,-214.58333333333334
276,-157.5,180,-738.75,-881.25,-382.5,-150,-63.75,-41.25,-248.33333333333334
277,-161.25,120,-678.75,-813.75,-397.5,-198.75,-123.75,-97.5,-261.25
278,-153.75,82.5,-615,-735,-393.75,-221.25,-150,-131.25,-257.5
279,-142.5,60,-551.25,-645,-371.25,-217.5,-165,-146.25,-242.08333333333334
280,-127.5,52.5,-487.5,-558.75,-341.25,-213.75,-161.25,-153.75,-221.25
281,-112.5,52.5,-431.25,-468.75,-307.5,-195,-153.75,-146.25,-195.83333333333334
282,-97.5,56.25,-375,-386.25,-273.75,-180,-146.25,-146.25,-172.08333333333334
283,-82.5,56.25,-326.25,-315,-240,-168.75,-142.5,-146.25,-151.66666666666666
284,-71.25,56.25,-281.25,-258.75,-210,-157.5,-142.5,-142.5,-134.16666666666666
285,-63.75,48.75,-247.5,-210,-187.5,-153.75,-138.75,-146.25,-122.08333333333333
286,-52.5,41.25,-213.75,-176.25,-168.75,-150,-142.5,-153.75,-112.91666666666667
287,-48.75,33.75,-187.5,-153.75,-153.75,-146.25,-138.75,-157.5,-105.83333333333333
288,-41.25,30,-161.25,-138.75,-146.25,-142.5,-138.75,-153.75,-99.16666666666667
289,-41.25,22.5,-138.75,-123.75,-142.5,-142.5,-138.75,-157.5,-95.83333333333333
290,-41.25,15,-116.25,-116.25,-142.5,-142.5,-138.75,-161.25,-93.75
291,-41.25,15,-105,-105,-150,-146.25,-138.75,-161.25,-92.5
292,-41.25,15,-90,-101.25,-150,-150,-146.25,-168.75,-92.5
293,-45,11.25,-86.25,-90,-153.75,-157.5,-153.75,-168.75,-93.75
294,-41.25,3.75,-82.5,-82.5,-161.25,-165,-165,-180,-97.08333333333333
295,-41.25,0,-82.5,-78.75,-168.75,-176.25,-172.5,-187.5,-100.83333333333333
296,-45,-3.75,-82.5,-78.75,-168.75,-187.5,-183.75,-198.75,-105.41666666666667
297,-41.25,-7.5,-82.5,-75,-176.25,-195,-195,-206.25,-108.75
298,-41.25,-11.25,-82.5,-82.5,-180,-206.25,-202.5,-217.5,-113.75
299,-37.5,-11.25,-82.5,-86.25,-183.75,-213.75,-206.25,-221.25,-115.83333333333333
300,-37.5,-3.75,-86.25,-90,-187.5,-213.75,-210,-225,-117.08333333333333
301,-37.5,0,-86.25,-101.25,-195,-213.75,-210,-225,-118.75
302,-37.5,11.25,-86.25,-101.25,-198.75,-213.75,-206.25,-221.25,-117.08333333333333
303,-37.5,22.5,-86.25,-101.25,-202.5,-213.75,-206.25,-221.25,-116.25
304,-33.75,33.75,-86.25,-101.25,-202.5,-217.5,-210,-221.25,-115.41666666666667
305,-33.75,37.5,-86.25,-93.75,-202.5,-213.75,-210,-221.25,-113.75
306,-33.75,37.5,-82.5,-90,-202.5,-217.5,-210,-221.25,-113.33333333333333
307,-30,26.25,-82.5,-82.5,-198.75,-221.25,-210,-221.25,-113.33333333333333
308,-30,18.75,-78.75,-75,-195,-217.5,-213.75,-221.25,-112.5
309,-22.5,11.25,-78.75,-71.25,-195,-221.25,-210,-217.5,-111.66666666666667
310,-22.5,0,-71.25,-67.5,-191.25,-221.25,-210,-221.25,-111.66666666666667
311,-26.25,-15,-71.25,-67.5,-187.5,-217.5,-206.25,-217.5,-112.08333333333333
312,-22.5,-22.5,-67.5,-67.5,-183.75,-210,-202.5,-217.5,-110.41666666666667
313,-22.5,-30,-60,-63.75,-180,-206.25,-198.75,-213.75,-108.33333333333333
314,-18.75,-30,-60,-60,-172.5,-202.5,-195,-210,-105.41666666666667
315,-18.75,-30,-56.25,-60,-168.75,-195,-191.25,-202.5,-102.5
316,-11.25,-30,-52.5,-56.25,-168.75,-191.25,-187.5,-198.75,-99.58333333333333
317,-11.25,-26.25,-52.5,-48.75,-165,-191.25,-183.75,-198.75,-97.5
318,-7.5,-26.25,-56.25,-48.75,-165,-187.5,-183.75,-195,-96.66666666666667
319,-7.5,-26.25,-56.25,-45,-161.25,-191.25,-183.75,-195,-96.25
320,-3.75,-22.5,-56.25,-41.25,-165,-195,-183.75,-195,-95.83333333333333
321,-3.75,-18.75,-60,-37.5,-161.25,-191.25,-180,-195,-94.16666666666667
322,0,-15,-63.75,-37.5,-161.25,-195,-187.5,-195,-95.0
323,0,-11.25,-63.75,-37.5,-161.25,-195,-183.75,-195,-94.16666666666667
324,0,-3.75,-67.5,-37.5,-161.25,-195,-183.75,-195,-93.75
325,0,0,-63.75,-37.5,-161.25,-191.25,-180,-198.75,-92.5
326,0,11.25,-67.5,-37.5,-157.5,-187.5,-183.75,-195,-90.83333333333333
327,0,18.75,-67.5,-37.5,-153.75,-187.5,-176.25,-198.75,-89.16666666666667
328,0,33.75,-63.75,-33.75,-150,-183.75,-176.25,-195,-85.41666666666667
329,3.75,41.25,-63.75,-33.75,-150,-180,-176.25,-195,-83.75
330,3.75,41.25,-63.75,-30,-146.25,-180,-172.5,-191.25,-82.08333333333333
331,7.5,41.25,-67.5,-26.25,-142.5,-172.5,-168.75,-187.5,-79.58333333333333
332,11.25,41.25,-63.75,-18.75,-138.75,-172.5,-165,-180,-76.25
333,15,33.75,-63.75,-11.25,-135,-168.75,-157.5,-176.25,-73.75
334,22.5,30,-63.75,-7.5,-131.25,-165,-153.75,-172.5,-71.25
335,30,33.75,-63.75,0,-131.25,-161.25,-150,-168.75,-67.91666666666667
336,30,33.75,-63.75,0,-127.5,-161.25,-146.25,-168.75,-67.08333333333333
337,37.5,41.25,-63.75,0,-123.75,-157.5,-142.5,-168.75,-64.16666666666667
338,41.25,45,-71.25,0,-123.75,-150,-142.5,-168.75,-63.333333333333336
339,41.25,52.5,-71.25,0,-120,-146.25,-138.75,-165,-60.833333333333336
340,45,56.25,-71.25,0,-116.25,-146.25,-138.75,-165,-59.583333333333336
341,45,56.25,-67.5,0,-112.5,-142.5,-131.25,-161.25,-57.083333333333336
342,41.25,52.5,-67.5,7.5,-105,-135,-131.25,-157.5,-55.0
343,48.75,56.25,-63.75,15,-101.25,-131.25,-127.5,-150,-50.416666666666664
344,45,52.5,-63.75,18.75,-97.5,-131.25,-123.75,-146.25,-49.583333333333336
345,52.5,48.75,-63.75,18.75,-97.5,-127.5,-123.75,-146.25,-48.75
346,52.5,52.5,-63.75,26.25,-93.75,-127.5,-120,-142.5,-46.25
347,52.5,52.5,-63.75,26.25,-93.75,-123.75,-120,-142.5,-45.833333333333336
348,56.25,52.5,-63.75,26.25,-93.75,-123.75,-120,-142.5,-45.416666666666664
349,60,56.25,-63.75,30,-93.75,-123.75,-116.25,-138.75,-43.333333333333336
350,63.75,56.25,-67.5,30,-90,-123.75,-116.25,-142.5,-43.333333333333336
351,67.5,60,-67.5,33.75,-90,-116.25,-116.25,-135,-40.416666666666664
352,71.25,67.5,-71.25,30,-82.5,-120,-108.75,-135,-38.75
353,75,75,-71.25,30,-86.25,-112.5,-112.5,-131.25,-37.083333333333336
354,82.5,82.5,-71.25,33.75,-82.5,-112.5,-105,-131.25,-33.75
355,86.25,90,-78.75,33.75,-78.75,-112.5,-105,-131.25,-32.916666666666664
356,97.5,93.75,-75,33.75,-82.5,-116.25,-105,-127.5,-31.25
357,101.25,97.5,-82.5,33.75,-82.5,-112.5,-108.75,-123.75,-30.833333333333332
358,105,97.5,-82.5,41.25,-82.5,-116.25,-101.25,-123.75,-29.166666666666668
359,105,90,-82.5,41.25,-78.75,-112.5,-105,-120,-29.166666666666668
360,105,82.5,-78.75,45,-78.75,-112.5,-101.25,-116.25,-28.333333333333332
361,105,71.25,-78.75,48.75,-75,-108.75,-97.5,-112.5,-27.5
362,105,60,-75,48.75,-71.25,-105,-93.75,-108.75,-26.666666666666668
363,108.75,48.75,-71.25,52.5,-67.5,-101.25,-90,-105,-25.0
364,105,41.25,-71.25,56.25,-63.75,-97.5,-90,-101.25,-24.583333333333332
365,112.5,41.25,-71.25,56.25,-63.75,-97.5,-90,-97.5,-23.333333333333332
366,116.25,45,-71.25,56.25,-67.5,-97.5,-86.25,-97.5,-22.5
367,123.75,48.75,-71.25,52.5,-63.75,-101.25,-90,-97.5,-22.083333333333332
368,123.75,63.75,-75,52.5,-67.5,-101.25,-86.25,-97.5,-20.833333333333332
369,127.5,75,-78.75,52.5,-75,-105,-93.75,-101.25,-22.083333333333332
370,131.25,90,-82.5,48.75,-78.75,-105,-97.5,-101.25,-21.666666666666668
371,131.25,105,-86.25,41.25,-86.25,-108.75,-97.5,-101.25,-22.5
372,135,116.25,-90,41.25,-90,-112.5,-97.5,-105,-22.5
373,138.75,127.5,-90,37.5,-93.75,-116.25,-105,-108.75,-23.333333333333332
374,138.75,135,-90,33.75,-93.75,-116.25,-101.25,-105,-22.083333333333332
375,138.75,135,-90,33.75,-93.75,-116.25,-105,-108.75,-22.916666666666668
376,146.25,131.25,-90,33.75,-93.75,-120,-105,-108.75,-22.916666666666668
377,150,131.25,-86.25,33.75,-90,-116.25,-101.25,-105,-20.416666666666668
378,153.75,127.5,-82.5,37.5,-90,-116.25,-97.5,-108.75,-19.583333333333332
379,153.75,123.75,-82.5,37.5,-93.75,-116.25,-97.5,-105,-20.0
380,157.5,123.75,-82.5,41.25,-90,-116.25,-97.5,-101.25,-18.333333333333332
381,157.5,123.75,-82.5,41.25,-93.75,-112.5,-97.5,-101.25,-18.333333333333332
382,157.5,120,-75,45,-93.75,-116.25,-93.75,-97.5,-17.083333333333332
383,161.25,116.25,-75,45,-97.5,-116.25,-93.75,-97.5,-17.5
384,161.25,108.75,-71.25,45,-101.25,-116.25,-90,-93.75,-17.5
385,157.5,105,-67.5,45,-101.25,-116.25,-90,-90,-17.5
386,153.75,97.5,-63.75,45,-97.5,-120,-93.75,-90,-18.75
387,153.75,90,-56.25,45,-105,-116.25,-90,-86.25,-18.333333333333332
388,153.75,82.5,-48.75,48.75,-101.25,-120,-93.75,-90,-18.75
389,146.25,71.25,-45,45,-105,-123.75,-97.5,-93.75,-22.5
390,142.5,67.5,-41.25,45,-105,-127.5,-101.25,-97.5,-24.166666666666668
391,138.75,60,-41.25,41.25,-108.75,-127.5,-105,-105,-27.5
392,138.75,60,-41.25,41.25,-112.5,-135,-108.75,-105,-29.166666666666668
393,131.25,63.75,-41.25,41.25,-116.25,-138.75,-116.25,-112.5,-32.083333333333336
394,127.5,63.75,-37.5,37.5,-120,-142.5,-120,-116.25,-34.166666666666664
395,123.75,67.5,-41.25,37.5,-123.75,-153.75,-123.75,-120,-37.083333333333336
396,120,67.5,-37.5,33.75,-131.25,-157.5,-131.25,-127.5,-40.416666666666664
397,112.5,67.5,-37.5,30,-135,-165,-138.75,-131.25,-44.166666666666664
398,105,67.5,-33.75,22.5,-142.5,-172.5,-146.25,-135,-48.333333333333336
399,97.5,67.5,-30,18.75,-146.25,-176.25,-153.75,-142.5,-51.666666666666664
400,93.75,71.25,-30,15,-157.5,-180,-157.5,-146.25,-54.583333333333336
401,82.5,71.25,-30,7.5,-157.5,-187.5,-161.25,-153.75,-58.75
402,75,78.75,-26.25,3.75,-161.25,-191.25,-168.75,-157.5,-60.833333333333336
403,67.5,82.5,-33.75,0,-168.75,-195,-172.5,-165,-65.0
404,63.75,86.25,-30,-3.75,-172.5,-202.5,-176.25,-168.75,-67.08333333333333
405,52.5,86.25,-33.75,-7.5,-176.25,-206.25,-180,-176.25,-71.25
406,45,90,-33.75,-15,-180,-213.75,-187.5,-180,-75.0
407,41.25,90,-33.75,-22.5,-183.75,-221.25,-191.25,-183.75,-78.33333333333333
408,33.75,90,-33.75,-22.5,-187.5,-225,-195,-187.5,-80.83333333333333
409,26.25,78.75,-33.75,-30,-191.25,-228.75,-202.5,-191.25,-85.83333333333333
410,18.75,63.75,-30,-30,-191.25,-228.75,-206.25,-191.25,-88.33333333333333
411,15,41.25,-30,-30,-195,-228.75,-206.25,-191.25,-91.66666666666667
412,11.25,15,-26.25,-33.75,-191.25,-228.75,-206.25,-191.25,-94.58333333333333
413,3.75,-3.75,-18.75,-30,-191.25,-225,-198.75,-187.5,-94.58333333333333
414,0,-22.5,-15,-30,-187.5,-221.25,-198.75,-187.5,-95.83333333333333
415,0,-33.75,-15,-33.75,-187.5,-221.25,-198.75,-187.5,-97.5
416,-7.5,-33.75,-11.25,-33.75,-187.5,-217.5,-195,-183.75,-96.66666666666667
417,-7.5,-30,-11.25,-37.5,-187.5,-217.5,-195,-187.5,-97.08333333333333
418,-15,-26.25,-11.25,-37.5,-187.5,-221.25,-195,-183.75,-97.5
419,-15,-22.5,-11.25,-41.25,-187.5,-221.25,-198.75,-187.5,-98.33333333333333
420,-18.75,-15,-11.25,-41.25,-195,-221.25,-198.75,-187.5,-98.75
421,-22.5,-11.25,-11.25,-45,-195,-225,-202.5,-191.25,-100.41666666666667
422,-26.25,-11.25,-15,-52.5,-202.5,-225,-202.5,-195,-103.33333333333333
423,-30,-15,-18.75,-60,-206.25,-228.75,-210,-202.5,-107.91666666666667
424,-37.5,-18.75,-22.5,-67.5,-210,-228.75,-213.75,-206.25,-111.66666666666667
425,-41.25,-22.5,-26.25,-71.25,-213.75,-236.25,-217.5,-210,-115.41666666666667
426,-41.25,-30,-26.25,-78.75,-217.5,-236.25,-221.25,-213.75,-118.33333333333333
427,-45,-33.75,-26.25,-82.5,-217.5,-240,-225,-217.5,-120.83333333333333
428,-48.75,-37.5,-30,-82.5,-221.25,-243.75,-228.75,-221.25,-123.75
429,-48.75,-41.25,-33.75,-86.25,-225,-247.5,-228.75,-221.25,-125.83333333333333
430,-52.5,-41.25,-33.75,-86.25,-221.25,-251.25,-232.5,-221.25,-126.66666666666667
431,-48.75,-37.5,-37.5,-90,-228.75,-255,-232.5,-228.75,-128.75
432,-52.5,-33.75,-37.5,-93.75,-232.5,-258.75,-240,-228.75,-130.83333333333334
433,-48.75,-30,-41.25,-97.5,-236.25,-262.5,-243.75,-228.75,-132.08333333333334
434,-52.5,-22.5,-41.25,-105,-243.75,-262.5,-243.75,-228.75,-133.33333333333334
435,-52.5,-15,-45,-112.5,-247.5,-266.25,-243.75,-236.25,-135.41666666666666
436,-52.5,-15,-48.75,-120,-247.5,-270,-247.5,-236.25,-137.5
437,-56.25,-15,-48.75,-120,-251.25,-273.75,-247.5,-240,-139.16666666666666
438,-56.25,-18.75,-48.75,-123.75,-247.5,-273.75,-247.5,-240,-139.58333333333334
439,-63.75,-30,-48.75,-120,-247.5,-273.75,-243.75,-240,-140.83333333333334
440,-63.75,-41.25,-48.75,-116.25,-247.5,-270,-243.75,-232.5,-140.41666666666666
441,-67.5,-60,-41.25,-112.5,-240,-266.25,-243.75,-232.5,-140.41666666666666
442,-75,-75,-41.25,-108.75,-236.25,-262.5,-240,-225,-140.41666666666666
443,-75,-82.5,-37.5,-105,-232.5,-262.5,-236.25,-221.25,-139.16666666666666
444,-78.75,-90,-33.75,-105,-236.25,-262.5,-236.25,-221.25,-140.41666666666666
445,-75,-93.75,-33.75,-101.25,-232.5,-262.5,-232.5,-217.5,-138.75
446,-78.75,-90,-33.75,-105,-236.25,-266.25,-236.25,-221.25,-140.83333333333334
447,-75,-82.5,-33.75,-108.75,-236.25,-266.25,-232.5,-221.25,-139.58333333333334
448,-75,-78.75,-37.5,-112.5,-236.25,-273.75,-236.25,-221.25,-141.25
449,-75,-67.5,-41.25,-116.25,-240,-273.75,-243.75,-228.75,-142.91666666666666
450,-75,-56.25,-45,-120,-243.75,-277.5,-247.5,-232.5,-144.16666666666666
451,-71.25,-48.75,-48.75,-120,-240,-277.5,-247.5,-232.5,-142.91666666666666
452,-75,-33.75,-52.5,-123.75,-247.5,-281.25,-251.25,-236.25,-144.58333333333334
453,-71.25,-30,-52.5,-123.75,-247.5,-277.5,-251.25,-232.5,-142.91666666666666
454,-71.25,-26.25,-56.25,-123.75,-247.5,-277.5,-251.25,-232.5,-142.91666666666666
455,-71.25,-26.25,-60,-120,-243.75,-277.5,-251.25,-236.25,-142.91666666666666
456,-71.25,-30,-56.25,-120,-243.75,-277.5,-243.75,-232.5,-141.66666666666666
457,-67.5,-33.75,-56.25,-116.25,-243.75,-273.75,-240,-228.75,-140.0
458,-71.25,-37.5,-52.5,-112.5,-236.25,-266.25,-232.5,-228.75,-137.5
459,-67.5,-41.25,-52.5,-108.75,-232.5,-262.5,-228.75,-225,-135.41666666666666
460,-67.5,-33.75,-52.5,-108.75,-228.75,-258.75,-221.25,-221.25,-132.5
461,-63.75,-33.75,-48.75,-112.5,-228.75,-255,-221.25,-221.25,-131.66666666666666
462,-63.75,-26.25,-52.5,-105,-225,-255,-217.5,-217.5,-129.16666666666666
463,-63.75,-22.5,-56.25,-105,-228.75,-255,-225,-221.25,-130.83333333333334
464,-63.75,-18.75,-52.5,-108.75,-228.75,-255,-228.75,-225,-131.25
465,-60,-18.75,-56.25,-108.75,-232.5,-255,-232.5,-221.25,-131.66666666666666
466,-60,-18.75,-56.25,-105,-232.5,-258.75,-232.5,-221.25,-131.66666666666666
467,-60,-18.75,-52.5,-108.75,-232.5,-262.5,-232.5,-221.25,-132.08333333333334
468,-60,-18.75,-52.5,-108.75,-232.5,-262.5,-232.5,-221.25,-132.08333333333334
469,-60,-18.75,-52.5,-112.5,-232.5,-262.5,-232.5,-221.25,-132.5
470,-60,-18.75,-56.25,-108.75,-228.75,-262.5,-232.5,-221.25,-132.08333333333334
471,-60,-22.5,-52.5,-108.75,-225,-258.75,-228.75,-217.5,-130.41666666666666
472,-60,-26.25,-52.5,-108.75,-225,-255,-225,-221.25,-130.41666666666666
473,-56.25,-26.25,-56.25,-108.75,-221.25,-255,-225,-217.5,-129.58333333333334
474,-56.25,-30,-52.5,-108.75,-217.5,-251.25,-221.25,-217.5,-128.33333333333334
475,-56.25,-33.75,-52.5,-101.25,-217.5,-247.5,-217.5,-217.5,-127.08333333333333
476,-56.25,-33.75,-56.25,-97.5,-210,-247.5,-213.75,-217.5,-125.83333333333333
477,-56.25,-37.5,-52.5,-97.5,-213.75,-251.25,-217.5,-213.75,-126.66666666666667
478,-56.25,-30,-52.5,-93.75,-210,-247.5,-213.75,-217.5,-124.58333333333333
479,-56.25,-30,-52.5,-101.25,-213.75,-251.25,-217.5,-217.5,-126.66666666666667
480,-52.5,-26.25,-56.25,-105,-213.75,-247.5,-217.5,-213.75,-125.83333333333333
481,-60,-15,-60,-105,-217.5,-251.25,-217.5,-217.5,-127.08333333333333
482,-56.25,-7.5,-60,-105,-217.5,-251.25,-217.5,-217.5,-125.83333333333333
483,-56.25,-3.75,-60,-108.75,-217.5,-251.25,-221.25,-221.25,-126.66666666666667
484,-60,-3.75,-60,-112.5,-217.5,-251.25,-221.25,-217.5,-127.08333333333333
485,-60,0,-60,-108.75,-217.5,-251.25,-225,-217.5,-126.66666666666667
486,-60,-3.75,-60,-108.75,-217.5,-255,-221.25,-217.5,-127.08333333333333
487,-60,-7.5,-63.75,-112.5,-221.25,-251.25,-225,-217.5,-128.75
488,-63.75,-11.25,-63.75,-108.75,-213.75,-251.25,-217.5,-217.5,-127.5
489,-63.75,-18.75,-60,-108.75,-213.75,-247.5,-217.5,-213.75,-127.08333333333333
490,-56.25,-26.25,-56.25,-108.75,-213.75,-247.5,-217.5,-210,-126.25
491,-60,-26.25,-60,-105,-213.75,-251.25,-213.75,-206.25,-126.25
492,-60,-37.5,-52.5,-105,-210,-247.5,-210,-210,-125.83333333333333
493,-56.25,-37.5,-56.25,-105,-213.75,-247.5,-210,-206.25,-125.83333333333333
494,-56.25,-37.5,-52.5,-105,-213.75,-247.5,-213.75,-206.25,-125.83333333333333
495,-60,-37.5,-56.25,-105,-213.75,-247.5,-213.75,-206.25,-126.66666666666667
496,-56.25,-33.75,-52.5,-105,-217.5,-251.25,-213.75,-210,-126.66666666666667
497,-60,-33.75,-60,-108.75,-221.25,-251.25,-213.75,-206.25,-128.33333333333334
498,-60,-30,-63.75,-112.5,-221.25,-255,-217.5,-210,-130.0
499,-60,-30,-63.75,-112.5,-221.25,-255,-217.5,-213.75,-130.41666666666666
500,-63.75,-30,-63.75,-116.25,-221.25,-255,-217.5,-213.75,-131.25
501,-63.75,-30,-67.5,-116.25,-225,-255,-217.5,-213.75,-132.08333333333334
502,-60,-26.25,-63.75,-120,-225,-255,-217.5,-217.5,-131.66666666666666
503,-60,-22.5,-63.75,-120,-225,-258.75,-221.25,-213.75,-131.66666666666666
504,-60,-18.75,-63.75,-123.75,-228.75,-255,-221.25,-213.75,-131.66666666666666
505,-60,-18.75,-63.75,-123.75,-225,-258.75,-225,-213.75,-132.08333333333334
506,-60,-15,-67.5,-123.75,-232.5,-258.75,-221.25,-217.5,-132.91666666666666
507,-56.25,-7.5,-71.25,-123.75,-236.25,-262.5,-228.75,-221.25,-134.16666666666666
508,-63.75,-3.75,-71.25,-127.5,-236.25,-262.5,-225,-221.25,-134.58333333333334
509,-60,0,-75,-131.25,-236.25,-262.5,-225,-221.25,-134.58333333333334
510,-63.75,0,-82.5,-131.25,-240,-262.5,-225,-225,-136.66666666666666
511,-60,7.5,-82.5,-138.75,-243.75,-270,-228.75,-225,-137.91666666666666
512,-56.25,3.75,-82.5,-138.75,-243.75,-270,-225,-228.75,-137.91666666666666
513,-56.25,3.75,-86.25,-138.75,-243.75,-270,-228.75,-228.75,-138.75
514,-56.25,0,-86.25,-138.75,-243.75,-270,-228.75,-228.75,-139.16666666666666
515,-52.5,-11.25,-86.25,-138.75,-243.75,-270,-228.75,-225,-139.58333333333334
516,-52.5,-18.75,-78.75,-138.75,-243.75,-270,-228.75,-221.25,-139.16666666666666
517,-52.5,-33.75,-82.5,-138.75,-243.75,-270,-228.75,-221.25,-141.25
518,-56.25,-37.5,-78.75,-135,-240,-270,-228.75,-221.25,-140.83333333333334
519,-52.5,-45,-78.75,-142.5,-243.75,-270,-228.75,-221.25,-142.5
520,-56.25,-48.75,-78.75,-138.75,-240,-266.25,-228.75,-221.25,-142.08333333333334
521,-60,-48.75,-82.5,-138.75,-243.75,-273.75,-228.75,-225,-144.58333333333334
522,-60,-41.25,-82.5,-142.5,-243.75,-270,-232.5,-225,-144.16666666666666
523,-63.75,-41.25,-82.5,-146.25,-251.25,-273.75,-236.25,-228.75,-147.08333333333334
524,-63.75,-33.75,-90,-146.25,-251.25,-277.5,-236.25,-228.75,-147.5
525,-67.5,-30,-86.25,-150,-255,-281.25,-243.75,-232.5,-149.58333333333334
526,-67.5,-30,-93.75,-153.75,-255,-281.25,-240,-232.5,-150.41666666666666
527,-71.25,-30,-93.75,-157.5,-262.5,-285,-247.5,-232.5,-153.33333333333334
528,-71.25,-33.75,-93.75,-153.75,-262.5,-288.75,-247.5,-232.5,-153.75
529,-71.25,-33.75,-93.75,-157.5,-266.25,-292.5,-247.5,-232.5,-155.0
530,-71.25,-37.5,-93.75,-157.5,-266.25,-288.75,-247.5,-232.5,-155.0
531,-75,-41.25,-93.75,-157.5,-266.25,-292.5,-247.5,-232.5,-156.25
532,-75,-45,-93.75,-157.5,-266.25,-288.75,-243.75,-228.75,-155.41666666666666
533,-71.25,-48.75,-90,-161.25,-266.25,-288.75,-243.75,-228.75,-155.41666666666666
534,-75,-48.75,-93.75,-161.25,-266.25,-292.5,-243.75,-228.75,-156.66666666666666
535,-71.25,-48.75,-90,-161.25,-266.25,-288.75,-243.75,-232.5,-155.83333333333334
536,-71.25,-48.75,-93.75,-161.25,-266.25,-296.25,-247.5,-228.75,-157.08333333333334
537,-67.5,-45,-97.5,-165,-270,-296.25,-251.25,-236.25,-158.75
538,-67.5,-45,-101.25,-168.75,-273.75,-296.25,-251.25,-236.25,-160.0
539,-71.25,-41.25,-101.25,-168.75,-277.5,-300,-258.75,-240,-162.08333333333334
540,-67.5,-41.25,-105,-172.5,-277.5,-300,-258.75,-240,-162.5
541,-71.25,-45,-105,-172.5,-277.5,-303.75,-255,-240,-163.33333333333334
542,-75,-52.5,-101.25,-168.75,-273.75,-300,-255,-236.25,-162.5
543,-75,-60,-101.25,-165,-270,-296.25,-251.25,-236.25,-161.66666666666666
544,-75,-71.25,-97.5,-165,-270,-288.75,-247.5,-228.75,-160.41666666666666
545,-71.25,-78.75,-90,-161.25,-266.25,-288.75,-243.75,-228.75,-158.75
546,-71.25,-82.5,-90,-157.5,-262.5,-285,-240,-225,-157.08333333333334
547,-67.5,-86.25,-86.25,-157.5,-262.5,-281.25,-240,-221.25,-155.83333333333334
548,-67.5,-86.25,-86.25,-157.5,-262.5,-277.5,-236.25,-221.25,-155.0
549,-63.75,-78.75,-82.5,-157.5,-262.5,-281.25,-236.25,-221.25,-153.75
550,-63.75,-75,-82.5,-153.75,-262.5,-277.5,-240,-217.5,-152.5
551,-63.75,-67.5,-86.25,-153.75,-262.5,-281.25,-240,-221.25,-152.91666666666666
552,-60,-60,-86.25,-157.5,-262.5,-281.25,-236.25,-221.25,-151.66666666666666
553,-63.75,-52.5,-90,-161.25,-266.25,-285,-240,-221.25,-153.33333333333334
554,-67.5,-48.75,-90,-161.25,-266.25,-285,-240,-221.25,-153.33333333333334
555,-71.25,-48.75,-93.75,-161.25,-270,-285,-243.75,-225,-155.41666666666666
556,-75,-48.75,-93.75,-161.25,-270,-288.75,-243.75,-228.75,-156.66666666666666
557,-78.75,-48.75,-93.75,-165,-270,-292.5,-247.5,-232.5,-158.75
558,-82.5,-48.75,-93.75,-168.75,-273.75,-288.75,-247.5,-236.25,-160.0
559,-86.25,-45,-90,-165,-273.75,-292.5,-247.5,-232.5,-159.16666666666666
560,-86.25,-41.25,-90,-165,-273.75,-296.25,-247.5,-232.5,-159.16666666666666
561,-86.25,-37.5,-86.25,-165,-273.75,-296.25,-247.5,-236.25,-158.75
562,-82.5,-26.25,-82.5,-161.25,-270,-292.5,-251.25,-232.5,-155.41666666666666
563,-78.75,-22.5,-78.75,-161.25,-270,-292.5,-247.5,-228.75,-153.33333333333334
564,-75,-15,-67.5,-153.75,-266.25,-288.75,-243.75,-228.75,-148.75
565,-75,-11.25,-60,-150,-262.5,-281.25,-240,-225,-145.0
566,-67.5,-11.25,-48.75,-142.5,-255,-277.5,-236.25,-221.25,-140.0
567,-63.75,-11.25,-41.25,-135,-251.25,-270,-232.5,-217.5,-135.83333333333334
568,-63.75,-11.25,-30,-127.5,-247.5,-266.25,-225,-213.75,-131.66666666666666
569,-63.75,-18.75,-26.25,-123.75,-240,-258.75,-221.25,-210,-129.16666666666666
570,-56.25,-15,-18.75,-116.25,-232.5,-255,-217.5,-206.25,-124.16666666666667
571,-56.25,-15,-11.25,-112.5,-228.75,-251.25,-213.75,-202.5,-121.25
572,-60,-15,-11.25,-108.75,-228.75,-251.25,-213.75,-202.5,-121.25
573,-56.25,-11.25,-11.25,-108.75,-225,-247.5,-210,-198.75,-118.75
574,-56.25,-7.5,-7.5,-105,-221.25,-247.5,-210,-198.75,-117.08333333333333
575,-56.25,-3.75,-7.5,-105,-221.25,-243.75,-210,-195,-115.83333333333333
576,-56.25,0,-3.75,-101.25,-221.25,-243.75,-210,-195,-114.58333333333333
577,-56.25,7.5,-7.5,-101.25,-221.25,-243.75,-210,-198.75,-114.58333333333333
578,-56.25,18.75,-11.25,-105,-221.25,-243.75,-210,-198.75,-114.16666666666667
579,-52.5,33.75,-15,-108.75,-221.25,-243.75,-210,-198.75,-112.91666666666667
580,-52.5,45,-22.5,-112.5,-225,-243.75,-210,-198.75,-113.33333333333333
581,-48.75,60,-37.5,-116.25,-228.75,-247.5,-210,-202.5,-114.58333333333333
582,-45,75,-52.5,-120,-232.5,-251.25,-213.75,-202.5,-115.83333333333333
583,-41.25,82.5,-67.5,-127.5,-240,-251.25,-217.5,-206.25,-118.75
584,-33.75,90,-86.25,-135,-243.75,-255,-221.25,-206.25,-121.25
585,-30,90,-101.25,-146.25,-247.5,-262.5,-225,-210,-125.83333333333333
586,-22.5,86.25,-112.5,-157.5,-251.25,-266.25,-225,-210,-128.75
587,-18.75,82.5,-123.75,-161.25,-258.75,-270,-228.75,-213.75,-132.5
588,-15,71.25,-123.75,-161.25,-258.75,-270,-228.75,-210,-132.91666666666666
589,-7.5,56.25,-127.5,-165,-258.75,-270,-225,-210,-134.16666666666666
590,-7.5,37.5,-123.75,-161.25,-258.75,-266.25,-228.75,-210,-135.41666666666666
591,-7.5,22.5,-123.75,-165,-255,-266.25,-221.25,-206.25,-135.83333333333334
592,-3.75,3.75,-116.25,-165,-258.75,-262.5,-221.25,-202.5,-136.25
593,-7.5,-11.25,-116.25,-161.25,-255,-266.25,-217.5,-202.5,-137.5
594,-15,-22.5,-112.5,-161.25,-255,-266.25,-217.5,-202.5,-139.16666666666666
595,-18.75,-33.75,-112.5,-161.25,-255,-262.5,-221.25,-202.5,-140.83333333333334
596,-22.5,-37.5,-112.5,-165,-258.75,-270,-221.25,-202.5,-143.33333333333334
597,-33.75,-45,-112.5,-161.25,-258.75,-270,-225,-206.25,-145.83333333333334
598,-45,-48.75,-108.75,-165,-262.5,-270,-228.75,-210,-148.75
599,-52.5,-48.75,-108.75,-168.75,-262.5,-273.75,-232.5,-217.5,-151.66666666666666
600,-60,-48.75,-105,-172.5,-266.25,-273.75,-236.25,-221.25,-153.75
601,-67.5,-48.75,-105,-172.5,-270,-281.25,-243.75,-225,-157.08333333333334
602,-71.25,-48.75,-105,-172.5,-270,-281.25,-243.75,-225,-157.5
603,-71.25,-52.5,-101.25,-172.5,-273.75,-285,-247.5,-228.75,-159.16666666666666
604,-71.25,-56.25,-101.25,-176.25,-273.75,-285,-247.5,-232.5,-160.41666666666666
605,-71.25,-60,-101.25,-180,-277.5,-288.75,-243.75,-236.25,-162.08333333333334
606,-71.25,-60,-105,-180,-277.5,-288.75,-251.25,-236.25,-163.33333333333334
607,-75,-60,-108.75,-183.75,-281.25,-292.5,-251.25,-240,-165.83333333333334
608,-75,-56.25,-112.5,-191.25,-288.75,-300,-255,-247.5,-169.58333333333334
609,-78.75,-56.25,-116.25,-195,-292.5,-300,-258.75,-247.5,-171.66666666666666
610,-82.5,-52.5,-123.75,-202.5,-303.75,-303.75,-262.5,-255,-176.25
611,-86.25,-56.25,-131.25,-206.25,-307.5,-307.5,-270,-258.75,-180.41666666666666
612,-86.25,-56.25,-135,-213.75,-311.25,-311.25,-273.75,-262.5,-183.33333333333334
613,-86.25,-56.25,-135,-213.75,-315,-315,-273.75,-262.5,-184.16666666666666
614,-90,-63.75,-135,-213.75,-311.25,-315,-277.5,-262.5,-185.41666666666666
615,-90,-67.5,-127.5,-213.75,-311.25,-315,-277.5,-262.5,-185.0
616,-90,-75,-123.75,-213.75,-307.5,-318.75,-277.5,-262.5,-185.41666666666666
617,-90,-78.75,-120,-206.25,-307.5,-315,-270,-255,-182.5
618,-86.25,-82.5,-120,-206.25,-303.75,-311.25,-273.75,-255,-182.08333333333334
619,-86.25,-82.5,-116.25,-202.5,-303.75,-311.25,-266.25,-255,-180.41666666666666
620,-82.5,-82.5,-120,-202.5,-300,-307.5,-270,-251.25,-179.58333333333334
621,-82.5,-82.5,-120,-202.5,-300,-307.5,-266.25,-247.5,-178.75
622,-78.75,-78.75,-120,-202.5,-300,-307.5,-270,-247.5,-178.33333333333334
623,-82.5,-78.75,-120,-202.5,-300,-307.5,-270,-247.5,-178.75
624,-82.5,-71.25,-123.75,-202.5,-300,-307.5,-270,-251.25,-178.75
625,-82.5,-67.5,-123.75,-206.25,-303.75,-311.25,-270,-255,-180.0
626,-82.5,-60,-127.5,-210,-303.75,-311.25,-273.75,-258.75,-180.83333333333334
627,-82.5,-56.25,-127.5,-210,-307.5,-315,-277.5,-258.75,-181.66666666666666
628,-86.25,-48.75,-127.5,-210,-311.25,-318.75,-285,-262.5,-183.33333333333334
629,-86.25,-45,-127.5,-213.75,-315,-322.5,-288.75,-266.25,-185.0
630,-82.5,-45,-123.75,-202.5,-318.75,-326.25,-292.5,-270,-184.58333333333334
631,-82.5,-45,-112.5,-198.75,-315,-333.75,-296.25,-281.25,-185.0
632,-78.75,-52.5,-97.5,-183.75,-315,-337.5,-303.75,-288.75,-184.16666666666666
633,-78.75,-60,-75,-161.25,-311.25,-341.25,-315,-296.25,-182.08333333333334
634,-75,-63.75,-45,-135,-303.75,-348.75,-322.5,-307.5,-177.91666666666666
635,-71.25,-71.25,-7.5,-97.5,-292.5,-352.5,-333.75,-318.75,-171.66666666666666
636,-67.5,-75,33.75,-52.5,-277.5,-352.5,-337.5,-330,-162.08333333333334
637,-56.25,-71.25,78.75,0,-255,-348.75,-341.25,-333.75,-147.5
638,-41.25,-67.5,127.5,56.25,-228.75,-341.25,-337.5,-333.75,-129.58333333333334
639,-22.5,-52.5,172.5,120,-191.25,-322.5,-326.25,-318.75,-104.58333333333333
640,0,-33.75,213.75,187.5,-146.25,-292.5,-303.75,-300,-75.0
641,30,0,251.25,251.25,-93.75,-251.25,-266.25,-266.25,-38.333333333333336
642,63.75,33.75,277.5,315,-30,-195,-217.5,-221.25,2.9166666666666665
643,105,86.25,300,371.25,30,-127.5,-150,-161.25,50.416666666666664
644,153.75,153.75,303.75,420,101.25,-45,-71.25,-90,102.91666666666667
645,206.25,236.25,300,461.25,176.25,41.25,22.5,-3.75,160.0
646,258.75,330,281.25,487.5,255,150,127.5,90,220.0
647,318.75,438.75,243.75,495,333.75,262.5,243.75,202.5,282.0833333333333
648,375,555,191.25,487.5,412.5,386.25,375,326.25,345.4166666666667
649,431.25,686.25,127.5,461.25,487.5,513.75,513.75,457.5,408.75
650,480,825,41.25,420,558.75,641.25,660,596.25,469.1666666666667
651,525,960,-52.5,356.25,626.25,776.25,806.25,738.75,526.25
652,558.75,1087.5,-165,270,686.25,903.75,948.75,873.75,573.75
653,581.25,1196.25,-281.25,168.75,735,1027.5,1087.5,1001.25,612.9166666666666
654,588.75,1282.5,-401.25,60,772.5,1136.25,1207.5,1110,639.5833333333334
655,577.5,1335,-506.25,-52.5,795,1226.25,1308.75,1196.25,653.3333333333334
656,555,1353.75,-603.75,-165,806.25,1293.75,1380,1248.75,652.0833333333334
657,510,1331.25,-686.25,-277.5,798.75,1320,1413.75,1271.25,631.25
658,450,1275,-753.75,-390,761.25,1308.75,1395,1248.75,588.3333333333334
659,375,1196.25,-798.75,-491.25,697.5,1252.5,1335,1185,527.9166666666666
660,296.25,1087.5,-832.5,-588.75,600,1140,1226.25,1083.75,445.8333333333333
661,206.25,963.75,-851.25,-678.75,472.5,986.25,1072.5,948.75,346.6666666666667
662,120,832.5,-858.75,-757.5,318.75,798.75,885,791.25,236.66666666666666
663,45,705,-855,-825,157.5,592.5,686.25,615,124.58333333333333
664,-22.5,577.5,-847.5,-877.5,0,382.5,480,446.25,15.416666666666666
665,-82.5,472.5,-828.75,-907.5,-142.5,191.25,292.5,285,-80.0
666,-123.75,378.75,-798.75,-911.25,-255,30,135,142.5,-155.83333333333334
667,-150,303.75,-765,-888.75,-337.5,-90,3.75,30,-210.41666666666666
668,-161.25,243.75,-720,-851.25,-386.25,-172.5,-78.75,-45,-241.25
669,-161.25,195,-671.25,-791.25,-401.25,-221.25,-135,-101.25,-254.16666666666666
670,-153.75,153.75,-611.25,-720,-393.75,-240,-161.25,-127.5,-250.41666666666666
671,-138.75,123.75,-547.5,-637.5,-371.25,-240,-168.75,-142.5,-235.83333333333334
672,-123.75,97.5,-487.5,-551.25,-337.5,-228.75,-165,-142.5,-215.41666666666666
673,-108.75,78.75,-431.25,-468.75,-303.75,-210,-153.75,-131.25,-192.08333333333334
674,-93.75,60,-375,-390,-266.25,-195,-142.5,-123.75,-169.58333333333334
675,-82.5,48.75,-326.25,-322.5,-232.5,-180,-135,-120,-150.0
676,-71.25,37.5,-281.25,-262.5,-206.25,-168.75,-131.25,-120,-133.75
677,-60,30,-251.25,-213.75,-183.75,-165,-131.25,-116.25,-121.25
678,-52.5,26.25,-217.5,-183.75,-168.75,-161.25,-131.25,-120,-112.08333333333333
679,-45,22.5,-195,-161.25,-161.25,-161.25,-135,-123.75,-106.66666666666667
680,-41.25,18.75,-176.25,-146.25,-157.5,-165,-135,-123.75,-102.91666666666667
681,-37.5,18.75,-157.5,-135,-157.5,-161.25,-138.75,-131.25,-100.0
682,-37.5,15,-138.75,-127.5,-153.75,-165,-138.75,-135,-97.91666666666667
683,-33.75,11.25,-123.75,-120,-157.5,-168.75,-142.5,-142.5,-97.5
684,-37.5,15,-112.5,-116.25,-161.25,-176.25,-150,-146.25,-98.33333333333333
685,-33.75,15,-105,-112.5,-161.25,-183.75,-161.25,-157.5,-100.0
686,-37.5,18.75,-101.25,-105,-168.75,-195,-172.5,-168.75,-103.33333333333333
687,-37.5,18.75,-105,-105,-176.25,-206.25,-187.5,-176.25,-108.33333333333333
688,-41.25,22.5,-108.75,-105,-187.5,-217.5,-198.75,-191.25,-114.16666666666667
689,-41.25,26.25,-108.75,-105,-195,-232.5,-210,-198.75,-118.33333333333333
690,-45,30,-116.25,-108.75,-202.5,-243.75,-221.25,-206.25,-123.75
691,-41.25,33.75,-116.25,-108.75,-206.25,-247.5,-225,-210,-124.58333333333333
692,-41.25,41.25,-116.25,-112.5,-210,-243.75,-221.25,-210,-123.75
693,-45,41.25,-112.5,-112.5,-210,-243.75,-217.5,-210,-123.33333333333333
694,-41.25,41.25,-108.75,-116.25,-206.25,-236.25,-210,-206.25,-120.41666666666667
695,-37.5,37.5,-101.25,-105,-202.5,-228.75,-202.5,-202.5,-115.83333333333333
696,-33.75,26.25,-90,-101.25,-195,-221.25,-195,-198.75,-112.08333333333333
697,-33.75,7.5,-82.5,-90,-187.5,-217.5,-187.5,-191.25,-109.16666666666667
698,-33.75,-3.75,-71.25,-78.75,-180,-213.75,-183.75,-187.5,-105.83333333333333
699,-26.25,-26.25,-60,-71.25,-172.5,-206.25,-183.75,-183.75,-103.33333333333333
700,-22.5,-37.5,-56.25,-60,-168.75,-206.25,-183.75,-180,-101.66666666666667
701,-18.75,-45,-56.25,-52.5,-168.75,-210,-180,-176.25,-100.83333333333333
702,-15,-45,-60,-52.5,-168.75,-206.25,-183.75,-176.25,-100.83333333333333
703,-11.25,-41.25,-63.75,-48.75,-172.5,-210,-183.75,-172.5,-100.41666666666667
704,-7.5,-30,-67.5,-56.25,-172.5,-206.25,-180,-172.5,-99.16666666666667
705,-7.5,-18.75,-71.25,-56.25,-172.5,-206.25,-176.25,-176.25,-98.33333333333333
706,-11.25,-7.5,-75,-63.75,-176.25,-206.25,-176.25,-172.5,-98.75
707,-15,0,-75,-67.5,-176.25,-206.25,-176.25,-176.25,-99.16666666666667
708,-18.75,7.5,-75,-71.25,-176.25,-206.25,-180,-180,-100.0
709,-22.5,15,-78.75,-71.25,-176.25,-206.25,-180,-180,-100.0
710,-26.25,26.25,-82.5,-71.25,-180,-210,-183.75,-187.5,-101.66666666666667
711,-26.25,33.75,-86.25,-67.5,-183.75,-213.75,-191.25,-187.5,-102.5
712,-22.5,41.25,-90,-71.25,-183.75,-213.75,-195,-195,-103.33333333333333
713,-22.5,45,-90,-67.5,-183.75,-217.5,-195,-191.25,-102.5
714,-15,45,-93.75,-67.5,-183.75,-213.75,-191.25,-191.25,-101.25
715,-11.25,48.75,-93.75,-63.75,-180,-213.75,-187.5,-187.5,-98.75
716,-3.75,37.5,-90,-60,-176.25,-206.25,-183.75,-180,-95.83333333333333
717,0,30,-86.25,-52.5,-168.75,-198.75,-176.25,-172.5,-91.66666666666667
718,0,22.5,-86.25,-45,-161.25,-195,-168.75,-165,-88.75
719,3.75,11.25,-82.5,-41.25,-153.75,-187.5,-157.5,-157.5,-85.0
720,11.25,3.75,-78.75,-33.75,-146.25,-180,-153.75,-153.75,-81.25
721,11.25,0,-75,-30,-146.25,-176.25,-150,-150,-79.58333333333333
722,11.25,0,-75,-26.25,-142.5,-172.5,-146.25,-146.25,-77.5
723,15,0,-71.25,-22.5,-142.5,-172.5,-146.25,-150,-76.66666666666667
724,15,7.5,-75,-26.25,-142.5,-176.25,-146.25,-150,-77.08333333333333
725,18.75,11.25,-78.75,-22.5,-146.25,-172.5,-150,-153.75,-77.08333333333333
726,18.75,18.75,-75,-22.5,-146.25,-176.25,-150,-150,-75.83333333333333
727,22.5,33.75,-82.5,-26.25,-142.5,-180,-150,-153.75,-75.41666666666667
728,26.25,45,-90,-22.5,-146.25,-180,-150,-153.75,-74.58333333333333
729,33.75,56.25,-90,-26.25,-146.25,-176.25,-150,-150,-72.08333333333333
730,37.5,67.5,-93.75,-26.25,-142.5,-172.5,-146.25,-150,-69.58333333333333
731,45,71.25,-97.5,-26.25,-142.5,-172.5,-146.25,-146.25,-68.33333333333333
732,48.75,75,-97.5,-22.5,-138.75,-168.75,-142.5,-142.5,-65.41666666666667
733,52.5,71.25,-93.75,-22.5,-138.75,-165,-135,-138.75,-63.333333333333336
734,56.25,67.5,-93.75,-15,-131.25,-157.5,-127.5,-131.25,-59.166666666666664
735,56.25,60,-90,-7.5,-120,-150,-120,-127.5,-55.416666666666664
736,56.25,52.5,-86.25,0,-116.25,-146.25,-116.25,-120,-52.916666666666664
737,52.5,48.75,-86.25,3.75,-108.75,-138.75,-112.5,-116.25,-50.833333333333336
738,56.25,48.75,-82.5,11.25,-105,-135,-108.75,-116.25,-47.916666666666664
739,60,52.5,-82.5,11.25,-101.25,-131.25,-105,-112.5,-45.416666666666664
740,60,56.25,-82.5,11.25,-101.25,-135,-108.75,-112.5,-45.833333333333336
741,60,67.5,-82.5,15,-105,-131.25,-101.25,-108.75,-42.916666666666664
742,63.75,75,-86.25,11.25,-105,-131.25,-101.25,-112.5,-42.916666666666664
743,71.25,82.5,-86.25,11.25,-105,-131.25,-101.25,-108.75,-40.833333333333336
744,71.25,90,-86.25,11.25,-105,-127.5,-101.25,-108.75,-39.583333333333336
745,78.75,90,-90,15,-101.25,-127.5,-101.25,-105,-37.916666666666664
746,82.5,90,-93.75,15,-101.25,-127.5,-101.25,-105,-37.916666666666664
747,86.25,90,-93.75,15,-97.5,-123.75,-97.5,-105,-36.25
748,93.75,86.25,-93.75,18.75,-97.5,-123.75,-97.5,-101.25,-35.0
749,97.5,86.25,-97.5,22.5,-93.75,-116.25,-93.75,-97.5,-32.5
750,101.25,86.25,-97.5,18.75,-93.75,-120,-90,-93.75,-32.083333333333336
751,105,86.25,-93.75,22.5,-90,-116.25,-90,-90,-29.583333333333332
752,105,86.25,-101.25,26.25,-93.75,-112.5,-90,-90,-30.0
753,108.75,86.25,-97.5,26.25,-90,-112.5,-86.25,-86.25,-27.916666666666668
754,108.75,90,-101.25,22.5,-93.75,-112.5,-82.5,-86.25,-28.333333333333332
755,112.5,93.75,-101.25,26.25,-97.5,-116.25,-86.25,-82.5,-27.916666666666668
756,120,101.25,-105,22.5,-93.75,-112.5,-82.5,-82.5,-25.833333333333332
757,120,105,-105,18.75,-97.5,-116.25,-86.25,-82.5,-27.083333333333332
758,123.75,112.5,-108.75,18.75,-97.5,-120,-86.25,-86.25,-27.083333333333332
759,123.75,123.75,-108.75,18.75,-101.25,-116.25,-86.25,-82.5,-25.416666666666668
760,127.5,127.5,-112.5,11.25,-101.25,-120,-90,-82.5,-26.666666666666668
761,127.5,127.5,-112.5,15,-105,-120,-90,-86.25,-27.083333333333332
762,127.5,127.5,-116.25,11.25,-108.75,-123.75,-90,-82.5,-28.333333333333332
763,131.25,120,-116.25,15,-105,-120,-90,-82.5,-27.5
764,138.75,116.25,-112.5,15,-108.75,-120,-90,-78.75,-26.666666666666668
765,142.5,108.75,-112.5,15,-108.75,-120,-90,-82.5,-27.5
766,146.25,101.25,-112.5,18.75,-108.75,-120,-90,-78.75,-27.083333333333332
767,150,93.75,-105,18.75,-108.75,-123.75,-86.25,-78.75,-26.666666666666668
768,157.5,93.75,-101.25,15,-108.75,-120,-86.25,-82.5,-25.833333333333332
769,157.5,90,-101.25,15,-108.75,-123.75,-86.25,-75,-25.833333333333332
770,161.25,90,-97.5,15,-112.5,-120,-90,-78.75,-25.833333333333332
771,157.5,93.75,-97.5,11.25,-120,-123.75,-90,-78.75,-27.5
772,157.5,97.5,-97.5,7.5,-120,-127.5,-86.25,-78.75,-27.5
773,153.75,101.25,-101.25,7.5,-123.75,-131.25,-93.75,-82.5,-30.0
774,153.75,108.75,-101.25,3.75,-135,-138.75,-97.5,-82.5,-32.083333333333336
775,150,116.25,-108.75,0,-142.5,-146.25,-105,-90,-36.25
776,150,131.25,-108.75,-7.5,-153.75,-153.75,-112.5,-97.5,-39.166666666666664
777,146.25,142.5,-112.5,-15,-161.25,-165,-123.75,-101.25,-43.333333333333336
778,138.75,157.5,-116.25,-22.5,-168.75,-172.5,-131.25,-108.75,-47.083333333333336
779,138.75,168.75,-120,-26.25,-172.5,-176.25,-135,-112.5,-48.333333333333336
780,138.75,176.25,-116.25,-33.75,-176.25,-183.75,-142.5,-120,-50.833333333333336
781,135,183.75,-120,-33.75,-180,-191.25,-146.25,-120,-52.5
782,135,180,-120,-33.75,-187.5,-191.25,-150,-127.5,-55.0
783,135,183.75,-120,-33.75,-183.75,-195,-150,-123.75,-54.166666666666664
784,135,176.25,-112.5,-33.75,-187.5,-195,-150,-127.5,-55.0
785,135,168.75,-108.75,-30,-187.5,-195,-153.75,-127.5,-55.416666666666664
786,135,161.25,-97.5,-26.25,-187.5,-191.25,-150,-123.75,-53.333333333333336
787,131.25,150,-86.25,-22.5,-183.75,-191.25,-146.25,-127.5,-52.916666666666664
788,127.5,138.75,-78.75,-22.5,-183.75,-191.25,-146.25,-123.75,-53.333333333333336
789,116.25,123.75,-63.75,-15,-180,-187.5,-146.25,-120,-52.5
790,108.75,116.25,-56.25,-15,-180,-187.5,-146.25,-123.75,-53.75
791,101.25,101.25,-48.75,-11.25,-176.25,-187.5,-150,-120,-54.583333333333336
792,93.75,86.25,-48.75,-7.5,-176.25,-183.75,-146.25,-120,-55.833333333333336
793,86.25,75,-41.25,-7.5,-172.5,-183.75,-146.25,-120,-56.666666666666664
794,78.75,56.25,-41.25,-3.75,-168.75,-183.75,-142.5,-116.25,-57.916666666666664
795,75,45,-37.5,-7.5,-168.75,-180,-146.25,-120,-60.0
796,67.5,30,-33.75,-3.75,-176.25,-180,-146.25,-120,-62.5
797,60,15,-30,-11.25,-172.5,-180,-146.25,-123.75,-65.41666666666667
798,52.5,3.75,-26.25,-11.25,-176.25,-183.75,-146.25,-127.5,-68.33333333333333
799,52.5,0,-22.5,-15,-180,-183.75,-146.25,-131.25,-69.58333333333333
800,45,-11.25,-18.75,-18.75,-180,-187.5,-153.75,-131.25,-72.91666666666667
801,37.5,-15,-18.75,-22.5,-183.75,-191.25,-153.75,-135,-75.83333333333333
802,30,-15,-18.75,-26.25,-183.75,-191.25,-157.5,-138.75,-77.91666666666667
803,22.5,-18.75,-18.75,-30,-187.5,-202.5,-165,-146.25,-82.91666666666667
804,15,-11.25,-18.75,-33.75,-191.25,-206.25,-168.75,-150,-85.0
805,11.25,-7.5,-22.5,-41.25,-198.75,-206.25,-176.25,-161.25,-89.16666666666667
806,3.75,0,-26.25,-48.75,-202.5,-213.75,-183.75,-168.75,-93.33333333333333
807,0,7.5,-33.75,-60,-210,-221.25,-191.25,-176.25,-98.33333333333333
808,0,11.25,-37.5,-67.5,-213.75,-225,-198.75,-183.75,-101.66666666666667
809,-3.75,18.75,-48.75,-75,-221.25,-228.75,-210,-191.25,-106.66666666666667
810,-7.5,22.5,-48.75,-82.5,-228.75,-236.25,-213.75,-191.25,-109.58333333333333
811,-11.25,22.5,-52.5,-86.25,-232.5,-240,-217.5,-195,-112.5
812,-18.75,18.75,-56.25,-90,-236.25,-243.75,-217.5,-195,-115.41666666666667
813,-22.5,15,-52.5,-93.75,-236.25,-247.5,-217.5,-191.25,-116.25
814,-26.25,11.25,-56.25,-93.75,-236.25,-247.5,-217.5,-195,-117.91666666666667
815,-30,7.5,-52.5,-93.75,-240,-247.5,-213.75,-191.25,-117.91666666666667
816,-33.75,3.75,-52.5,-101.25,-240,-243.75,-217.5,-195,-120.0
817,-37.5,3.75,-52.5,-105,-243.75,-247.5,-217.5,-195,-121.66666666666667
818,-41.25,3.75,-56.25,-108.75,-247.5,-247.5,-221.25,-198.75,-124.16666666666667
819,-48.75,3.75,-56.25,-112.5,-247.5,-251.25,-221.25,-202.5,-126.25
820,-45,3.75,-56.25,-120,-255,-251.25,-225,-206.25,-128.33333333333334
821,-48.75,3.75,-60,-123.75,-258.75,-258.75,-228.75,-206.25,-131.25
822,-52.5,3.75,-63.75,-131.25,-258.75,-258.75,-232.5,-210,-133.75
823,-52.5,3.75,-63.75,-135,-262.5,-258.75,-236.25,-210,-135.0
824,-52.5,3.75,-67.5,-135,-266.25,-262.5,-236.25,-213.75,-136.66666666666666
825,-56.25,3.75,-71.25,-138.75,-266.25,-266.25,-240,-213.75,-138.75
826,-52.5,0,-67.5,-138.75,-270,-262.5,-243.75,-217.5,-139.16666666666666
827,-56.25,0,-67.5,-138.75,-270,-266.25,-243.75,-221.25,-140.41666666666666
828,-56.25,0,-67.5,-138.75,-270,-266.25,-243.75,-217.5,-140.0
829,-56.25,0,-67.5,-142.5,-270,-266.25,-243.75,-221.25,-140.83333333333334
830,-56.25,0,-67.5,-142.5,-266.25,-266.25,-243.75,-217.5,-140.0
831,-60,0,-67.5,-146.25,-266.25,-262.5,-240,-221.25,-140.41666666666666
832,-63.75,0,-63.75,-142.5,-266.25,-266.25,-240,-217.5,-140.0
833,-63.75,0,-67.5,-146.25,-266.25,-266.25,-243.75,-217.5,-141.25
834,-63.75,-3.75,-67.5,-146.25,-266.25,-266.25,-240,-217.5,-141.25
835,-63.75,-3.75,-71.25,-150,-266.25,-266.25,-243.75,-217.5,-142.5
836,-63.75,0,-71.25,-146.25,-266.25,-266.25,-240,-217.5,-141.25
837,-67.5,0,-67.5,-150,-270,-270,-243.75,-213.75,-142.5
838,-67.5,0,-71.25,-150,-273.75,-270,-240,-217.5,-143.33333333333334
839,-67.5,0,-71.25,-146.25,-270,-270,-240,-213.75,-142.08333333333334
840,-67.5,0,-71.25,-146.25,-270,-270,-236.25,-217.5,-142.08333333333334
841,-71.25,-3.75,-71.25,-146.25,-266.25,-266.25,-236.25,-217.5,-142.08333333333334
842,-71.25,-7.5,-71.25,-146.25,-262.5,-262.5,-232.5,-213.75,-140.83333333333334
843,-75,-15,-71.25,-146.25,-262.5,-262.5,-232.5,-213.75,-142.08333333333334
844,-71.25,-26.25,-67.5,-142.5,-258.75,-258.75,-232.5,-213.75,-141.25
845,-75,-37.5,-67.5,-138.75,-255,-255,-232.5,-206.25,-140.83333333333334
846,-75,-48.75,-63.75,-138.75,-251.25,-251.25,-228.75,-206.25,-140.41666666666666
847,-71.25,-60,-60,-135,-247.5,-247.5,-225,-198.75,-138.33333333333334
848,-71.25,-67.5,-52.5,-127.5,-240,-240,-217.5,-191.25,-134.16666666666666
849,-67.5,-75,-52.5,-123.75,-240,-236.25,-217.5,-183.75,-132.91666666666666
850,-63.75,-78.75,-48.75,-120,-236.25,-232.5,-210,-180,-130.0
851,-63.75,-71.25,-48.75,-116.25,-236.25,-236.25,-210,-180,-129.16666666666666
852,-63.75,-60,-52.5,-120,-240,-236.25,-210,-180,-129.16666666666666
853,-60,-45,-60,-123.75,-243.75,-240,-210,-183.75,-129.58333333333334
854,-60,-26.25,-63.75,-131.25,-247.5,-243.75,-213.75,-191.25,-130.83333333333334
855,-60,-7.5,-71.25,-135,-251.25,-247.5,-225,-198.75,-132.91666666666666
856,-56.25,3.75,-78.75,-142.5,-258.75,-255,-232.5,-206.25,-136.25
857,-56.25,11.25,-86.25,-150,-258.75,-262.5,-240,-213.75,-139.58333333333334
858,-56.25,15,-90,-153.75,-266.25,-262.5,-243.75,-213.75,-141.25
859,-60,18.75,-93.75,-157.5,-266.25,-262.5,-243.75,-213.75,-142.08333333333334
860,-56.25,15,-90,-157.5,-266.25,-262.5,-243.75,-213.75,-141.66666666666666
861,-56.25,15,-93.75,-157.5,-266.25,-262.5,-243.75,-213.75,-142.08333333333334
862,-60,15,-93.75,-153.75,-266.25,-258.75,-240,-213.75,-141.25
863,-60,15,-90,-153.75,-266.25,-258.75,-236.25,-213.75,-140.41666666666666
864,-60,18.75,-90,-150,-262.5,-258.75,-236.25,-213.75,-139.16666666666666
865,-60,11.25,-86.25,-150,-258.75,-255,-228.75,-213.75,-137.91666666666666
866,-63.75,7.5,-86.25,-142.5,-258.75,-251.25,-225,-210,-136.66666666666666
867,-60,0,-82.5,-138.75,-255,-247.5,-221.25,-206.25,-134.58333333333334
868,-60,0,-82.5,-138.75,-247.5,-243.75,-221.25,-202.5,-132.91666666666666
869,-63.75,-7.5,-78.75,-135,-243.75,-240,-221.25,-198.75,-132.08333333333334
870,-60,-11.25,-78.75,-131.25,-243.75,-236.25,-217.5,-195,-130.41666666666666
871,-60,-15,-75,-127.5,-240,-232.5,-213.75,-191.25,-128.33333333333334
872,-60,-15,-75,-131.25,-240,-232.5,-213.75,-187.5,-128.33333333333334
873,-60,-18.75,-75,-127.5,-236.25,-232.5,-210,-183.75,-127.08333333333333
874,-56.25,-18.75,-78.75,-127.5,-240,-232.5,-210,-183.75,-127.5
875,-56.25,-22.5,-75,-123.75,-236.25,-232.5,-210,-183.75,-126.66666666666667
876,-52.5,-18.75,-75,-123.75,-236.25,-232.5,-206.25,-183.75,-125.41666666666667
877,-52.5,-22.5,-75,-123.75,-236.25,-232.5,-210,-183.75,-126.25
878,-48.75,-22.5,-75,-123.75,-240,-232.5,-206.25,-183.75,-125.83333333333333
879,-45,-15,-75,-123.75,-236.25,-232.5,-210,-183.75,-124.58333333333333
880,-45,-15,-75,-127.5,-243.75,-232.5,-210,-180,-125.41666666666667
881,-45,-7.5,-78.75,-127.5,-243.75,-240,-213.75,-183.75,-126.66666666666667
882,-45,-3.75,-82.5,-135,-243.75,-236.25,-213.75,-183.75,-127.08333333333333
883,-45,0,-78.75,-131.25,-247.5,-240,-213.75,-183.75,-126.66666666666667
884,-48.75,0,-86.25,-138.75,-243.75,-243.75,-217.5,-183.75,-129.16666666666666
885,-48.75,0,-86.25,-138.75,-251.25,-240,-217.5,-183.75,-129.58333333333334
886,-48.75,0,-90,-142.5,-247.5,-240,-217.5,-187.5,-130.41666666666666
887,-48.75,0,-90,-142.5,-247.5,-240,-221.25,-191.25,-131.25
888,-48.75,-3.75,-90,-142.5,-247.5,-247.5,-217.5,-187.5,-131.66666666666666
889,-48.75,-11.25,-90,-142.5,-251.25,-240,-221.25,-191.25,-132.91666666666666
890,-52.5,-15,-90,-142.5,-247.5,-243.75,-217.5,-191.25,-133.33333333333334
891,-48.75,-18.75,-82.5,-138.75,-251.25,-243.75,-217.5,-191.25,-132.5
892,-52.5,-26.25,-86.25,-142.5,-247.5,-240,-213.75,-191.25,-133.33333333333334
893,-56.25,-33.75,-82.5,-138.75,-247.5,-240,-213.75,-187.5,-133.33333333333334
894,-56.25,-33.75,-82.5,-138.75,-247.5,-240,-213.75,-187.5,-133.33333333333334
895,-56.25,-30,-86.25,-142.5,-251.25,-243.75,-217.5,-191.25,-135.41666666666666
896,-52.5,-22.5,-90,-146.25,-258.75,-243.75,-217.5,-191.25,-135.83333333333334
897,-56.25,-11.25,-97.5,-153.75,-262.5,-251.25,-225,-191.25,-138.75
898,-56.25,0,-101.25,-161.25,-270,-258.75,-232.5,-195,-141.66666666666666
899,-52.5,7.5,-108.75,-168.75,-270,-262.5,-240,-202.5,-144.16666666666666
900,-52.5,15,-112.5,-172.5,-277.5,-266.25,-243.75,-206.25,-146.25
901,-56.25,15,-112.5,-176.25,-277.5,-273.75,-243.75,-206.25,-147.91666666666666
902,-52.5,7.5,-112.5,-172.5,-281.25,-273.75,-243.75,-210,-148.75
903,-56.25,0,-108.75,-176.25,-277.5,-270,-240,-210,-148.75
904,-56.25,-11.25,-108.75,-172.5,-277.5,-270,-240,-210,-149.58333333333334
905,-56.25,-18.75,-108.75,-165,-277.5,-270,-240,-206.25,-149.16666666666666
906,-56.25,-26.25,-105,-168.75,-273.75,-266.25,-236.25,-206.25,-148.75
907,-60,-30,-105,-165,-277.5,-266.25,-236.25,-206.25,-149.58333333333334
908,-63.75,-26.25,-105,-165,-277.5,-270,-236.25,-202.5,-149.58333333333334
909,-63.75,-22.5,-105,-168.75,-277.5,-270,-236.25,-202.5,-149.58333333333334
910,-63.75,-15,-108.75,-172.5,-277.5,-270,-240,-202.5,-150.0
911,-67.5,-7.5,-108.75,-172.5,-281.25,-273.75,-240,-202.5,-150.41666666666666
912,-71.25,0,-112.5,-180,-285,-277.5,-247.5,-202.5,-152.91666666666666
913,-71.25,7.5,-112.5,-183.75,-288.75,-281.25,-247.5,-206.25,-153.75
914,-71.25,18.75,-120,-187.5,-292.5,-285,-255,-210,-155.83333333333334
915,-75,18.75,-123.75,-191.25,-296.25,-288.75,-258.75,-217.5,-159.16666666666666
916,-75,18.75,-123.75,-191.25,-296.25,-292.5,-258.75,-217.5,-159.58333333333334
917,-71.25,15,-127.5,-191.25,-300,-296.25,-262.5,-221.25,-161.66666666666666
918,-71.25,3.75,-120,-191.25,-296.25,-288.75,-255,-217.5,-159.58333333333334
919,-71.25,-3.75,-120,-183.75,-296.25,-285,-255,-213.75,-158.75
920,-67.5,-22.5,-116.25,-183.75,-292.5,-281.25,-251.25,-210,-158.33333333333334
921,-63.75,-30,-112.5,-180,-288.75,-277.5,-243.75,-206.25,-155.83333333333334
922,-63.75,-37.5,-112.5,-180,-285,-273.75,-243.75,-202.5,-155.41666666666666
923,-60,-41.25,-112.5,-180,-285,-273.75,-240,-198.75,-154.58333333333334
924,-63.75,-37.5,-105,-180,-285,-270,-240,-198.75,-153.33333333333334
925,-63.75,-33.75,-108.75,-176.25,-281.25,-270,-236.25,-195,-151.66666666666666
926,-63.75,-33.75,-105,-180,-285,-270,-236.25,-195,-152.08333333333334
927,-63.75,-30,-108.75,-180,-285,-270,-236.25,-195,-152.08333333333334
928,-63.75,-26.25,-108.75,-180,-285,-270,-236.25,-198.75,-152.08333333333334
929,-63.75,-30,-112.5,-183.75,-288.75,-273.75,-236.25,-195,-153.75
930,-63.75,-30,-112.5,-187.5,-292.5,-277.5,-240,-198.75,-155.83333333333334
931,-63.75,-33.75,-116.25,-187.5,-292.5,-281.25,-243.75,-202.5,-157.91666666666666
932,-67.5,-33.75,-120,-191.25,-300,-288.75,-247.5,-206.25,-161.66666666666666
933,-63.75,-33.75,-120,-195,-300,-288.75,-251.25,-206.25,-162.08333333333334
934,-63.75,-41.25,-123.75,-198.75,-303.75,-288.75,-251.25,-210,-164.58333333333334
935,-63.75,-45,-120,-195,-303.75,-288.75,-251.25,-210,-164.16666666666666
936,-63.75,-48.75,-116.25,-198.75,-303.75,-292.5,-251.25,-210,-165.0
937,-63.75,-52.5,-116.25,-198.75,-303.75,-288.75,-251.25,-210,-165.0
938,-63.75,-52.5,-116.25,-198.75,-303.75,-288.75,-251.25,-210,-165.0
939,-67.5,-48.75,-112.5,-198.75,-303.75,-288.75,-251.25,-210,-164.58333333333334
940,-67.5,-48.75,-112.5,-195,-303.75,-288.75,-255,-213.75,-165.0
941,-71.25,-48.75,-112.5,-198.75,-300,-288.75,-251.25,-213.75,-165.0
942,-71.25,-45,-112.5,-198.75,-303.75,-292.5,-258.75,-217.5,-166.66666666666666
943,-71.25,-41.25,-116.25,-198.75,-307.5,-296.25,-258.75,-217.5,-167.5
944,-71.25,-45,-116.25,-198.75,-307.5,-300,-258.75,-217.5,-168.33333333333334
945,-71.25,-45,-120,-202.5,-311.25,-300,-258.75,-217.5,-169.58333333333334
946,-71.25,-45,-116.25,-202.5,-311.25,-296.25,-258.75,-221.25,-169.16666666666666
947,-71.25,-48.75,-120,-198.75,-315,-300,-258.75,-221.25,-170.41666666666666
948,-75,-48.75,-120,-206.25,-311.25,-296.25,-255,-225,-170.83333333333334
949,-78.75,-52.5,-120,-206.25,-311.25,-292.5,-255,-221.25,-170.83333333333334
950,-78.75,-45,-120,-206.25,-307.5,-292.5,-255,-221.25,-169.58333333333334
951,-78.75,-45,-116.25,-202.5,-311.25,-288.75,-255,-225,-169.16666666666666
952,-82.5,-41.25,-120,-206.25,-307.5,-288.75,-255,-221.25,-169.16666666666666
953,-82.5,-33.75,-116.25,-202.5,-303.75,-285,-255,-221.25,-166.66666666666666
954,-82.5,-22.5,-112.5,-202.5,-300,-288.75,-255,-225,-165.41666666666666
955,-82.5,-11.25,-116.25,-202.5,-303.75,-285,-251.25,-221.25,-163.75
956,-86.25,0,-112.5,-198.75,-300,-285,-251.25,-221.25,-161.66666666666666
957,-86.25,7.5,-108.75,-198.75,-300,-288.75,-255,-221.25,-161.25
958,-86.25,15,-108.75,-198.75,-300,-285,-255,-221.25,-160.0
959,-86.25,26.25,-105,-202.5,-300,-288.75,-255,-225,-159.58333333333334
960,-86.25,37.5,-105,-198.75,-303.75,-288.75,-255,-225,-158.33333333333334
961,-82.5,45,-105,-198.75,-300,-292.5,-258.75,-221.25,-157.08333333333334
962,-78.75,52.5,-97.5,-198.75,-303.75,-288.75,-255,-225,-155.0
963,-71.25,56.25,-97.5,-191.25,-300,-288.75,-255,-225,-152.5
964,-63.75,56.25,-86.25,-187.5,-296.25,-281.25,-251.25,-221.25,-147.91666666666666
965,-60,52.5,-78.75,-180,-288.75,-277.5,-243.75,-217.5,-143.75
966,-52.5,52.5,-71.25,-176.25,-285,-273.75,-240,-213.75,-140.0
967,-45,45,-60,-165,-277.5,-262.5,-232.5,-206.25,-133.75
968,-45,45,-48.75,-157.5,-270,-258.75,-228.75,-202.5,-129.58333333333334
969,-41.25,41.25,-37.5,-150,-262.5,-251.25,-221.25,-195,-124.16666666666667
970,-45,41.25,-33.75,-146.25,-251.25,-247.5,-217.5,-187.5,-120.83333333333333
971,-41.25,37.5,-30,-138.75,-251.25,-243.75,-213.75,-183.75,-118.33333333333333
972,-37.5,41.25,-26.25,-135,-243.75,-236.25,-210,-176.25,-113.75
973,-37.5,37.5,-26.25,-131.25,-236.25,-232.5,-202.5,-172.5,-111.25
974,-30,33.75,-26.25,-127.5,-232.5,-228.75,-198.75,-165,-108.33333333333333
975,-26.25,33.75,-26.25,-123.75,-232.5,-221.25,-195,-161.25,-105.83333333333333
976,-22.5,33.75,-33.75,-123.75,-232.5,-217.5,-191.25,-157.5,-105.0
977,-11.25,37.5,-41.25,-127.5,-228.75,-217.5,-187.5,-157.5,-103.75
978,-7.5,45,-48.75,-127.5,-232.5,-217.5,-187.5,-157.5,-103.75
979,0,52.5,-60,-131.25,-232.5,-221.25,-191.25,-157.5,-104.58333333333333
980,0,60,-75,-138.75,-240,-225,-191.25,-157.5,-107.5
981,11.25,67.5,-90,-146.25,-240,-225,-191.25,-161.25,-108.33333333333333
982,15,71.25,-105,-153.75,-243.75,-228.75,-198.75,-161.25,-111.66666666666667
983,18.75,71.25,-116.25,-161.25,-247.5,-228.75,-198.75,-161.25,-113.75
984,22.5,67.5,-127.5,-168.75,-251.25,-236.25,-198.75,-157.5,-116.66666666666667
985,22.5,60,-131.25,-176.25,-255,-236.25,-198.75,-161.25,-119.58333333333333
986,26.25,56.25,-135,-180,-258.75,-240,-202.5,-161.25,-121.66666666666667
987,26.25,48.75,-138.75,-180,-262.5,-240,-202.5,-161.25,-123.33333333333333
988,26.25,41.25,-138.75,-180,-266.25,-243.75,-202.5,-165,-125.41666666666667
989,26.25,37.5,-138.75,-183.75,-273.75,-247.5,-206.25,-168.75,-128.33333333333334
990,18.75,33.75,-135,-183.75,-273.75,-251.25,-210,-168.75,-130.0
991,15,33.75,-135,-187.5,-273.75,-251.25,-213.75,-172.5,-131.66666666666666
992,11.25,33.75,-131.25,-187.5,-277.5,-255,-221.25,-176.25,-133.75
993,3.75,33.75,-135,-191.25,-277.5,-258.75,-221.25,-180,-136.25
994,0,33.75,-135,-198.75,-281.25,-262.5,-228.75,-187.5,-140.0
995,-3.75,33.75,-135,-198.75,-281.25,-266.25,-232.5,-191.25,-141.66666666666666
996,-7.5,33.75,-135,-202.5,-288.75,-270,-236.25,-195,-144.58333333333334
997,-15,30,-135,-202.5,-288.75,-273.75,-240,-202.5,-147.5
998,-18.75,33.75,-135,-202.5,-296.25,-281.25,-247.5,-206.25,-150.41666666666666
999,-22.5,30,-135,-210,-296.25,-285,-251.25,-210,-153.33333333333334
1000,-30,26.25,-138.75,-210,-303.75,-288.75,-255,-213.75,-157.08333333333334
1001,-33.75,26.25,-138.75,-217.5,-307.5,-296.25,-262.5,-221.25,-161.25
1002,-37.5,18.75,-138.75,-217.5,-311.25,-300,-266.25,-221.25,-163.75
1003,-45,7.5,-138.75,-217.5,-315,-303.75,-266.25,-221.25,-166.66666666666666
1004,-48.75,0,-142.5,-221.25,-315,-303.75,-270,-221.25,-169.16666666666666
1005,-52.5,-7.5,-142.5,-221.25,-311.25,-300,-266.25,-225,-169.58333333333334
1006,-56.25,-11.25,-142.5,-225,-315,-300,-262.5,-225,-170.83333333333334
1007,-56.25,-15,-142.5,-221.25,-311.25,-300,-262.5,-221.25,-170.0
1008,-56.25,-11.25,-142.5,-221.25,-311.25,-303.75,-262.5,-221.25,-170.0
1009,-56.25,-7.5,-138.75,-225,-315,-300,-262.5,-225,-170.0
1010,-52.5,0,-146.25,-225,-311.25,-300,-266.25,-225,-169.58333333333334
1011,-52.5,3.75,-146.25,-228.75,-318.75,-303.75,-266.25,-228.75,-171.25
1012,-52.5,15,-146.25,-236.25,-322.5,-303.75,-273.75,-228.75,-172.08333333333334
1013,-52.5,18.75,-150,-236.25,-322.5,-307.5,-273.75,-236.25,-173.33333333333334
1014,-52.5,22.5,-150,-240,-330,-307.5,-273.75,-236.25,-174.16666666666666
1015,-52.5,15,-153.75,-236.25,-330,-307.5,-273.75,-232.5,-174.58333333333334
1016,-52.5,7.5,-153.75,-236.25,-326.25,-311.25,-273.75,-232.5,-175.41666666666666
1017,-52.5,0,-150,-236.25,-326.25,-311.25,-273.75,-228.75,-175.41666666666666
1018,-56.25,-7.5,-150,-232.5,-326.25,-311.25,-270,-225,-175.41666666666666
1019,-60,-18.75,-146.25,-228.75,-322.5,-311.25,-270,-225,-175.83333333333334
1020,-60,-30,-146.25,-228.75,-322.5,-311.25,-270,-225,-177.08333333333334
1021,-63.75,-41.25,-142.5,-225,-318.75,-307.5,-270,-221.25,-176.66666666666666
1022,-67.5,-48.75,-138.75,-225,-315,-303.75,-262.5,-221.25,-175.83333333333334
1023,-71.25,-60,-135,-217.5,-311.25,-300,-262.5,-217.5,-175.0
1024,-71.25,-67.5,-127.5,-213.75,-303.75,-292.5,-258.75,-213.75,-172.08333333333334
1025,-71.25,-71.25,-120,-206.25,-300,-288.75,-255,-213.75,-169.58333333333334
1026,-71.25,-75,-112.5,-198.75,-296.25,-288.75,-255,-213.75,-167.91666666666666
1027,-63.75,-67.5,-101.25,-191.25,-292.5,-288.75,-258.75,-217.5,-164.58333333333334
1028,-60,-52.5,-90,-180,-292.5,-296.25,-266.25,-225,-162.5
1029,-52.5,-37.5,-75,-165,-296.25,-303.75,-277.5,-236.25,-160.41666666666666
1030,-45,-18.75,-56.25,-146.25,-292.5,-315,-288.75,-255,-157.5
1031,-33.75,0,-30,-120,-292.5,-322.5,-307.5,-273.75,-153.33333333333334
1032,-22.5,15,0,-86.25,-281.25,-330,-318.75,-288.75,-145.83333333333334
1033,-11.25,30,41.25,-41.25,-266.25,-330,-326.25,-296.25,-133.33333333333334
1034,3.75,41.25,78.75,11.25,-240,-322.5,-326.25,-296.25,-116.66666666666667
1035,18.75,52.5,123.75,75,-202.5,-303.75,-311.25,-285,-92.5
1036,41.25,67.5,168.75,138.75,-157.5,-273.75,-288.75,-262.5,-62.916666666666664
1037,71.25,82.5,210,210,-97.5,-228.75,-247.5,-228.75,-25.416666666666668
1038,105,112.5,243.75,281.25,-30,-165,-195,-180,19.166666666666668
1039,146.25,153.75,266.25,345,41.25,-97.5,-127.5,-120,67.5
1040,195,213.75,277.5,401.25,112.5,-15,-45,-48.75,121.25
1041,251.25,288.75,273.75,446.25,187.5,75,41.25,33.75,177.5
1042,311.25,386.25,258.75,476.25,266.25,176.25,146.25,127.5,238.75
1043,371.25,491.25,228.75,495,341.25,285,262.5,236.25,301.25
1044,435,615,180,498.75,420,397.5,382.5,352.5,364.5833333333333
1045,487.5,742.5,123.75,487.5,495,521.25,517.5,480,428.3333333333333
1046,543.75,873.75,52.5,465,566.25,645,656.25,611.25,490.4166666666667
1047,585,1005,-22.5,423.75,637.5,776.25,798.75,750,550.4166666666666
1048,618.75,1125,-112.5,367.5,705,903.75,941.25,881.25,603.3333333333334
1049,641.25,1226.25,-210,296.25,757.5,1023.75,1072.5,1005,645.8333333333334
1050,648.75,1312.5,-303.75,217.5,806.25,1132.5,1196.25,1113.75,680.4166666666666
1051,648.75,1365,-393.75,131.25,843.75,1222.5,1293.75,1196.25,700.8333333333334
1052,630,1387.5,-472.5,33.75,862.5,1290,1361.25,1252.5,705.0
1053,596.25,1372.5,-540,-60,858.75,1320,1395,1275,690.8333333333334
1054,547.5,1327.5,-592.5,-157.5,828.75,1308.75,1383.75,1252.5,655.4166666666666
1055,480,1248.75,-637.5,-258.75,772.5,1260,1335,1200,600.0
1056,405,1136.25,-660,-360,682.5,1166.25,1233.75,1110,523.75
1057,318.75,1008.75,-678.75,-457.5,562.5,1027.5,1098.75,990,430.0
1058,225,862.5,-682.5,-543.75,420,858.75,930,843.75,323.75
1059,135,716.25,-682.5,-626.25,266.25,671.25,746.25,682.5,212.08333333333334
1060,52.5,577.5,-675,-690,112.5,476.25,555,521.25,103.33333333333333
1061,-15,453.75,-663.75,-735,-22.5,296.25,375,367.5,6.25
1062,-71.25,352.5,-652.5,-761.25,-146.25,138.75,217.5,228.75,-77.08333333333333
1063,-112.5,270,-633.75,-768.75,-236.25,11.25,93.75,120,-139.58333333333334
1064,-131.25,213.75,-611.25,-753.75,-292.5,-82.5,0,30,-180.83333333333334
1065,-138.75,176.25,-588.75,-720,-330,-146.25,-63.75,-30,-204.58333333333334
1066,-135,153.75,-555,-678.75,-345,-180,-108.75,-71.25,-213.33333333333334
1067,-123.75,142.5,-521.25,-626.25,-341.25,-198.75,-131.25,-93.75,-210.41666666666666
1068,-101.25,138.75,-480,-566.25,-330,-202.5,-138.75,-105,-198.33333333333334
1069,-86.25,138.75,-442.5,-506.25,-315,-198.75,-142.5,-108.75,-184.58333333333334
1070,-67.5,138.75,-401.25,-438.75,-288.75,-187.5,-138.75,-108.75,-165.83333333333334
1071,-52.5,135,-360,-375,-266.25,-180,-138.75,-108.75,-149.58333333333334
1072,-37.5,127.5,-326.25,-318.75,-243.75,-172.5,-138.75,-108.75,-135.41666666666666
1073,-30,116.25,-288.75,-266.25,-221.25,-165,-135,-108.75,-122.08333333333333
1074,-26.25,97.5,-255,-225,-198.75,-157.5,-131.25,-105,-111.25
1075,-18.75,86.25,-228.75,-191.25,-180,-150,-131.25,-108.75,-102.5
1076,-11.25,71.25,-202.5,-168.75,-165,-146.25,-127.5,-105,-95.0
1077,-7.5,60,-180,-153.75,-153.75,-142.5,-120,-105,-89.16666666666667
1078,-3.75,48.75,-161.25,-146.25,-153.75,-138.75,-120,-101.25,-86.25
1079,0,48.75,-146.25,-142.5,-153.75,-138.75,-120,-105,-84.16666666666667
1080,3.75,48.75,-131.25,-138.75,-157.5,-142.5,-123.75,-108.75,-83.33333333333333
1081,3.75,48.75,-127.5,-138.75,-161.25,-150,-127.5,-116.25,-85.41666666666667
1082,7.5,52.5,-123.75,-135,-168.75,-157.5,-138.75,-123.75,-87.5
1083,7.5,56.25,-123.75,-131.25,-180,-168.75,-150,-135,-91.66666666666667
1084,7.5,60,-120,-123.75,-187.5,-176.25,-165,-146.25,-94.58333333333333
1085,7.5,63.75,-127.5,-123.75,-191.25,-191.25,-176.25,-153.75,-99.16666666666667
1086,7.5,63.75,-123.75,-120,-195,-198.75,-180,-157.5,-100.41666666666667
1087,3.75,63.75,-127.5,-120,-198.75,-206.25,-187.5,-161.25,-103.75
1088,3.75,56.25,-123.75,-123.75,-195,-206.25,-180,-157.5,-102.91666666666667
1089,3.75,48.75,-120,-123.75,-191.25,-202.5,-180,-153.75,-102.08333333333333
1090,3.75,41.25,-120,-123.75,-191.25,-195,-168.75,-150,-100.41666666666667
1091,3.75,33.75,-112.5,-120,-187.5,-187.5,-165,-142.5,-97.5
1092,3.75,22.5,-108.75,-120,-183.75,-180,-161.25,-138.75,-96.25
1093,3.75,15,-105,-120,-183.75,-176.25,-157.5,-135,-95.41666666666667
1094,3.75,15,-105,-116.25,-183.75,-176.25,-157.5,-138.75,-95.41666666666667
1095,3.75,15,-105,-112.5,-183.75,-180,-161.25,-142.5,-96.25
1096,3.75,15,-108.75,-108.75,-183.75,-180,-168.75,-142.5,-97.08333333333333
1097,3.75,22.5,-108.75,-105,-187.5,-183.75,-172.5,-150,-97.91666666666667
1098,3.75,26.25,-112.5,-105,-187.5,-191.25,-176.25,-153.75,-99.58333333333333
1099,7.5,41.25,-116.25,-108.75,-187.5,-195,-183.75,-161.25,-100.41666666666667
1100,7.5,52.5,-116.25,-108.75,-195,-198.75,-183.75,-161.25,-100.41666666666667
1101,3.75,60,-123.75,-116.25,-191.25,-198.75,-187.5,-165,-102.08333333333333
1102,7.5,63.75,-123.75,-112.5,-195,-195,-183.75,-161.25,-100.0
1103,11.25,67.5,-123.75,-116.25,-195,-195,-180,-161.25,-99.16666666666667
1104,7.5,60,-123.75,-116.25,-191.25,-191.25,-176.25,-157.5,-98.75
1105,15,52.5,-120,-112.5,-187.5,-187.5,-172.5,-153.75,-96.25
1106,15,48.75,-116.25,-112.5,-183.75,-180,-168.75,-153.75,-94.58333333333333
1107,15,41.25,-116.25,-105,-183.75,-176.25,-168.75,-150,-93.75
1108,15,45,-112.5,-101.25,-180,-176.25,-165,-150,-91.66666666666667
1109,18.75,45,-116.25,-97.5,-176.25,-176.25,-168.75,-146.25,-90.83333333333333
1110,18.75,48.75,-116.25,-93.75,-176.25,-176.25,-168.75,-150,-90.41666666666667
1111,18.75,56.25,-116.25,-93.75,-176.25,-176.25,-168.75,-146.25,-89.16666666666667
1112,26.25,56.25,-116.25,-86.25,-172.5,-172.5,-165,-142.5,-85.83333333333333
1113,30,60,-116.25,-90,-168.75,-168.75,-161.25,-142.5,-84.16666666666667
1114,33.75,60,-112.5,-82.5,-161.25,-165,-153.75,-135,-79.58333333333333
1115,37.5,60,-112.5,-82.5,-161.25,-161.25,-150,-131.25,-77.91666666666667
1116,41.25,60,-112.5,-75,-153.75,-153.75,-142.5,-123.75,-73.33333333333333
1117,45,56.25,-112.5,-75,-150,-150,-138.75,-120,-71.66666666666667
1118,45,56.25,-112.5,-75,-146.25,-146.25,-135,-116.25,-70.0
1119,45,60,-112.5,-71.25,-146.25,-142.5,-131.25,-116.25,-68.33333333333333
1120,48.75,56.25,-112.5,-67.5,-142.5,-142.5,-131.25,-112.5,-67.08333333333333
1121,48.75,60,-116.25,-60,-138.75,-138.75,-127.5,-108.75,-64.58333333333333
1122,48.75,60,-112.5,-60,-138.75,-138.75,-127.5,-108.75,-64.16666666666667
1123,48.75,67.5,-116.25,-56.25,-138.75,-135,-123.75,-108.75,-62.5
1124,48.75,78.75,-120,-56.25,-138.75,-138.75,-123.75,-108.75,-62.083333333333336
1125,56.25,93.75,-123.75,-56.25,-135,-135,-127.5,-108.75,-59.583333333333336
1126,60,112.5,-123.75,-56.25,-135,-135,-127.5,-108.75,-57.083333333333336
1127,63.75,127.5,-127.5,-56.25,-135,-135,-127.5,-112.5,-55.833333333333336
1128,71.25,135,-131.25,-60,-135,-138.75,-123.75,-108.75,-54.583333333333336
1129,78.75,142.5,-131.25,-52.5,-131.25,-131.25,-120,-108.75,-50.416666666666664
1130,90,138.75,-123.75,-48.75,-127.5,-127.5,-116.25,-101.25,-46.25
1131,97.5,123.75,-120,-45,-116.25,-116.25,-108.75,-93.75,-42.083333333333336
1132,105,105,-116.25,-37.5,-105,-112.5,-97.5,-82.5,-37.916666666666664
1133,108.75,78.75,-112.5,-26.25,-97.5,-101.25,-90,-75,-35.0
1134,108.75,56.25,-108.75,-15,-90,-93.75,-82.5,-67.5,-32.5
1135,108.75,37.5,-101.25,-3.75,-82.5,-82.5,-75,-60,-28.75
1136,108.75,30,-101.25,0,-75,-78.75,-71.25,-56.25,-27.083333333333332
1137,108.75,30,-101.25,3.75,-75,-78.75,-71.25,-48.75,-25.833333333333332
1138,108.75,37.5,-101.25,0,-78.75,-75,-71.25,-52.5,-25.833333333333332
1139,108.75,52.5,-105,0,-78.75,-78.75,-75,-52.5,-25.416666666666668
1140,112.5,63.75,-105,-3.75,-75,-82.5,-75,-56.25,-24.583333333333332
1141,116.25,71.25,-108.75,-3.75,-78.75,-78.75,-71.25,-56.25,-23.333333333333332
1142,116.25,75,-116.25,-7.5,-78.75,-82.5,-75,-56.25,-25.0
1143,123.75,75,-120,-11.25,-78.75,-78.75,-71.25,-52.5,-23.75
1144,127.5,67.5,-120,-7.5,-78.75,-78.75,-67.5,-52.5,-23.333333333333332
1145,131.25,63.75,-123.75,-7.5,-78.75,-78.75,-63.75,-52.5,-23.333333333333332
1146,135,63.75,-120,-7.5,-78.75,-75,-63.75,-48.75,-21.666666666666668
1147,138.75,60,-123.75,-3.75,-75,-75,-67.5,-45,-21.25
1148,146.25,56.25,-123.75,0,-75,-71.25,-63.75,-45,-19.583333333333332
1149,153.75,60,-120,0,-78.75,-75,-63.75,-45,-18.75
1150,153.75,56.25,-123.75,3.75,-78.75,-67.5,-63.75,-41.25,-17.916666666666668
1151,157.5,60,-120,3.75,-78.75,-71.25,-60,-37.5,-16.25
1152,153.75,56.25,-123.75,7.5,-75,-67.5,-60,-37.5,-16.25
1153,157.5,60,-120,3.75,-78.75,-63.75,-56.25,-37.5,-15.0
1154,157.5,63.75,-127.5,3.75,-78.75,-67.5,-56.25,-33.75,-15.416666666666666
1155,157.5,71.25,-127.5,0,-78.75,-67.5,-52.5,-33.75,-14.583333333333334
1156,161.25,78.75,-127.5,0,-78.75,-67.5,-52.5,-33.75,-13.333333333333334
1157,165,90,-131.25,0,-78.75,-67.5,-52.5,-30,-11.666666666666666
1158,172.5,97.5,-131.25,0,-82.5,-67.5,-52.5,-30,-10.416666666666666
1159,176.25,105,-135,0,-78.75,-63.75,-48.75,-26.25,-7.916666666666667
1160,180,108.75,-131.25,0,-82.5,-60,-48.75,-22.5,-6.25
1161,180,116.25,-127.5,0,-78.75,-56.25,-45,-18.75,-3.3333333333333335
1162,180,116.25,-123.75,3.75,-78.75,-56.25,-45,-18.75,-2.5
1163,183.75,123.75,-127.5,0,-78.75,-60,-45,-18.75,-2.5
1164,180,123.75,-123.75,0,-86.25,-63.75,-48.75,-18.75,-4.166666666666667
1165,176.25,131.25,-127.5,0,-93.75,-67.5,-52.5,-22.5,-6.25
1166,176.25,138.75,-127.5,-7.5,-97.5,-75,-56.25,-26.25,-8.333333333333334
1167,176.25,146.25,-131.25,-11.25,-105,-82.5,-60,-26.25,-10.416666666666666
1168,176.25,150,-138.75,-18.75,-112.5,-90,-63.75,-33.75,-14.583333333333334
1169,180,153.75,-142.5,-26.25,-120,-101.25,-71.25,-33.75,-17.916666666666668
1170,176.25,153.75,-142.5,-30,-123.75,-108.75,-78.75,-37.5,-21.25
1171,180,146.25,-146.25,-33.75,-127.5,-112.5,-82.5,-41.25,-24.166666666666668
1172,180,142.5,-142.5,-30,-127.5,-112.5,-86.25,-41.25,-24.166666666666668
1173,180,138.75,-138.75,-30,-127.5,-108.75,-86.25,-37.5,-23.333333333333332
1174,183.75,135,-135,-30,-127.5,-108.75,-82.5,-41.25,-22.916666666666668
1175,187.5,123.75,-127.5,-26.25,-123.75,-108.75,-82.5,-37.5,-21.666666666666668
1176,187.5,116.25,-123.75,-18.75,-123.75,-105,-82.5,-37.5,-20.833333333333332
1177,187.5,112.5,-116.25,-15,-123.75,-105,-78.75,-37.5,-19.583333333333332
1178,187.5,97.5,-108.75,-15,-120,-101.25,-78.75,-33.75,-19.166666666666668
1179,180,86.25,-101.25,-11.25,-120,-105,-78.75,-33.75,-20.416666666666668
1180,176.25,75,-97.5,-7.5,-123.75,-105,-78.75,-30,-21.25
1181,172.5,67.5,-93.75,-11.25,-123.75,-108.75,-82.5,-37.5,-24.166666666666668
1182,161.25,63.75,-93.75,-7.5,-120,-112.5,-86.25,-37.5,-25.833333333333332
1183,153.75,60,-93.75,-11.25,-123.75,-116.25,-86.25,-45,-29.166666666666668
1184,146.25,67.5,-93.75,-11.25,-127.5,-123.75,-93.75,-52.5,-32.083333333333336
1185,138.75,75,-93.75,-15,-127.5,-123.75,-101.25,-56.25,-33.75
1186,135,82.5,-93.75,-18.75,-131.25,-131.25,-108.75,-67.5,-37.083333333333336
1187,131.25,93.75,-93.75,-18.75,-135,-131.25,-112.5,-75,-37.916666666666664
1188,127.5,101.25,-93.75,-18.75,-138.75,-138.75,-116.25,-78.75,-39.583333333333336
1189,127.5,108.75,-86.25,-22.5,-138.75,-138.75,-123.75,-90,-40.416666666666664
1190,120,112.5,-86.25,-26.25,-142.5,-142.5,-123.75,-93.75,-42.5
1191,116.25,112.5,-78.75,-26.25,-142.5,-146.25,-127.5,-93.75,-42.916666666666664
1192,112.5,108.75,-78.75,-26.25,-142.5,-146.25,-131.25,-97.5,-44.583333333333336
1193,105,101.25,-75,-30,-138.75,-150,-131.25,-101.25,-46.666666666666664
1194,97.5,93.75,-71.25,-33.75,-142.5,-153.75,-135,-101.25,-49.583333333333336
1195,90,82.5,-71.25,-30,-138.75,-150,-135,-105,-50.833333333333336
1196,78.75,75,-67.5,-33.75,-142.5,-153.75,-138.75,-105,-54.166666666666664
1197,71.25,63.75,-71.25,-37.5,-138.75,-153.75,-146.25,-108.75,-57.916666666666664
1198,71.25,56.25,-63.75,-33.75,-138.75,-153.75,-146.25,-112.5,-57.916666666666664
1199,63.75,52.5,-60,-37.5,-138.75,-150,-142.5,-112.5,-58.333333333333336
1200,60,45,-60,-33.75,-142.5,-150,-142.5,-112.5,-59.583333333333336
1201,60,45,-52.5,-37.5,-135,-150,-142.5,-116.25,-58.75
1202,52.5,37.5,-48.75,-33.75,-135,-146.25,-142.5,-112.5,-58.75
1203,52.5,30,-45,-33.75,-131.25,-142.5,-135,-105,-56.666666666666664
1204,48.75,22.5,-41.25,-33.75,-135,-138.75,-135,-101.25,-57.083333333333336
1205,45,15,-41.25,-37.5,-131.25,-142.5,-131.25,-101.25,-58.333333333333336
1206,37.5,15,-41.25,-37.5,-131.25,-138.75,-135,-105,-59.583333333333336
1207,30,15,-45,-41.25,-131.25,-146.25,-138.75,-108.75,-62.916666666666664
1208,26.25,18.75,-45,-45,-138.75,-150,-142.5,-116.25,-65.83333333333333
1209,18.75,26.25,-48.75,-52.5,-146.25,-157.5,-153.75,-123.75,-70.83333333333333
1210,15,26.25,-52.5,-60,-150,-165,-161.25,-135,-75.83333333333333
1211,7.5,30,-52.5,-67.5,-153.75,-172.5,-168.75,-138.75,-79.58333333333333
1212,11.25,26.25,-56.25,-75,-161.25,-176.25,-172.5,-142.5,-82.91666666666667
1213,3.75,18.75,-56.25,-78.75,-161.25,-176.25,-172.5,-142.5,-85.0
1214,3.75,7.5,-52.5,-78.75,-165,-172.5,-168.75,-142.5,-85.41666666666667
1215,3.75,0,-52.5,-75,-161.25,-172.5,-168.75,-138.75,-85.0
1216,0,-11.25,-52.5,-78.75,-161.25,-172.5,-165,-135,-86.25
1217,0,-18.75,-48.75,-75,-161.25,-168.75,-165,-131.25,-85.41666666666667
1218,0,-30,-52.5,-78.75,-161.25,-168.75,-165,-131.25,-87.5
1219,-3.75,-33.75,-48.75,-82.5,-161.25,-168.75,-161.25,-131.25,-87.91666666666667
1220,-3.75,-33.75,-48.75,-82.5,-165,-168.75,-165,-131.25,-88.75
1221,-11.25,-30,-52.5,-86.25,-168.75,-172.5,-168.75,-138.75,-92.08333333333333
1222,-15,-26.25,-52.5,-90,-172.5,-172.5,-172.5,-142.5,-93.75
1223,-22.5,-15,-56.25,-101.25,-176.25,-180,-176.25,-150,-97.5
1224,-26.25,0,-60,-108.75,-183.75,-187.5,-187.5,-153.75,-100.83333333333333
1225,-26.25,15,-67.5,-120,-191.25,-195,-198.75,-161.25,-105.0
1226,-26.25,30,-75,-127.5,-198.75,-202.5,-202.5,-168.75,-107.91666666666667
1227,-26.25,41.25,-78.75,-131.25,-206.25,-206.25,-210,-176.25,-110.41666666666667
1228,-30,41.25,-82.5,-135,-206.25,-210,-210,-172.5,-111.66666666666667
1229,-26.25,30,-78.75,-135,-202.5,-206.25,-210,-172.5,-111.25
1230,-26.25,15,-78.75,-123.75,-198.75,-202.5,-202.5,-165,-109.16666666666667
1231,-26.25,-7.5,-67.5,-116.25,-187.5,-195,-191.25,-157.5,-105.41666666666667
1232,-26.25,-41.25,-60,-105,-176.25,-180,-180,-150,-102.08333333333333
1233,-26.25,-67.5,-52.5,-93.75,-165,-168.75,-168.75,-135,-97.5
1234,-26.25,-90,-41.25,-86.25,-153.75,-161.25,-161.25,-131.25,-94.58333333333333
1235,-22.5,-108.75,-33.75,-78.75,-146.25,-153.75,-153.75,-123.75,-91.25
1236,-18.75,-116.25,-30,-75,-146.25,-150,-150,-120,-89.58333333333333
1237,-18.75,-116.25,-30,-78.75,-142.5,-150,-150,-120,-89.58333333333333
1238,-15,-101.25,-30,-82.5,-146.25,-150,-153.75,-120,-88.75
1239,-18.75,-86.25,-33.75,-86.25,-153.75,-157.5,-157.5,-123.75,-90.83333333333333
1240,-18.75,-71.25,-41.25,-86.25,-153.75,-161.25,-161.25,-123.75,-90.83333333333333
1241,-18.75,-56.25,-48.75,-93.75,-157.5,-165,-165,-131.25,-92.91666666666667
1242,-18.75,-41.25,-52.5,-97.5,-165,-168.75,-165,-131.25,-93.33333333333333
1243,-18.75,-30,-56.25,-101.25,-168.75,-168.75,-165,-138.75,-94.16666666666667
1244,-22.5,-26.25,-63.75,-105,-168.75,-168.75,-168.75,-138.75,-95.83333333333333
1245,-18.75,-26.25,-67.5,-105,-168.75,-168.75,-168.75,-138.75,-95.83333333333333
1246,-22.5,-26.25,-67.5,-105,-165,-165,-168.75,-138.75,-95.41666666666667
1247,-26.25,-30,-71.25,-101.25,-165,-161.25,-165,-138.75,-95.41666666666667
1248,-26.25,-37.5,-67.5,-101.25,-161.25,-157.5,-165,-138.75,-95.0
1249,-26.25,-45,-60,-101.25,-161.25,-157.5,-157.5,-135,-93.75
1250,-26.25,-45,-60,-97.5,-153.75,-153.75,-161.25,-135,-92.5
1251,-22.5,-45,-60,-90,-153.75,-153.75,-157.5,-131.25,-90.41666666666667
1252,-26.25,-37.5,-60,-90,-150,-153.75,-157.5,-131.25,-89.58333333333333
1253,-26.25,-26.25,-60,-90,-153.75,-157.5,-161.25,-131.25,-89.58333333333333
1254,-26.25,-15,-63.75,-93.75,-153.75,-157.5,-165,-131.25,-89.58333333333333
1255,-30,-3.75,-67.5,-97.5,-161.25,-161.25,-168.75,-135,-91.66666666666667
1256,-30,3.75,-75,-101.25,-161.25,-172.5,-176.25,-138.75,-94.58333333333333
1257,-30,11.25,-78.75,-105,-165,-176.25,-180,-142.5,-96.25
1258,-33.75,11.25,-82.5,-108.75,-168.75,-172.5,-180,-146.25,-97.91666666666667
1259,-30,3.75,-82.5,-108.75,-165,-176.25,-176.25,-142.5,-97.5
1260,-33.75,0,-82.5,-105,-161.25,-168.75,-176.25,-142.5,-96.66666666666667
1261,-30,-18.75,-75,-101.25,-161.25,-161.25,-172.5,-135,-95.0
1262,-26.25,-30,-75,-101.25,-157.5,-153.75,-165,-131.25,-93.33333333333333
1263,-22.5,-45,-71.25,-93.75,-146.25,-146.25,-153.75,-123.75,-89.16666666666667
1264,-22.5,-56.25,-67.5,-90,-142.5,-142.5,-146.25,-120,-87.5
1265,-22.5,-63.75,-63.75,-86.25,-138.75,-138.75,-142.5,-116.25,-85.83333333333333
1266,-18.75,-63.75,-63.75,-86.25,-138.75,-135,-138.75,-112.5,-84.16666666666667
1267,-18.75,-63.75,-67.5,-86.25,-135,-135,-135,-112.5,-83.75
1268,-22.5,-56.25,-63.75,-86.25,-135,-142.5,-138.75,-112.5,-84.16666666666667
1269,-22.5,-45,-71.25,-86.25,-142.5,-142.5,-142.5,-116.25,-85.41666666666667
1270,-18.75,-37.5,-71.25,-90,-146.25,-146.25,-150,-116.25,-86.25
1271,-22.5,-26.25,-71.25,-93.75,-146.25,-153.75,-153.75,-123.75,-87.91666666666667
1272,-22.5,-15,-75,-97.5,-150,-157.5,-157.5,-123.75,-88.75
1273,-26.25,-11.25,-78.75,-101.25,-153.75,-161.25,-161.25,-123.75,-90.83333333333333
1274,-22.5,-7.5,-82.5,-105,-157.5,-161.25,-165,-127.5,-92.08333333333333
1275,-22.5,-7.5,-82.5,-105,-153.75,-161.25,-161.25,-131.25,-91.66666666666667
1276,-26.25,-7.5,-82.5,-108.75,-157.5,-165,-161.25,-127.5,-92.91666666666667
1277,-22.5,-7.5,-82.5,-105,-157.5,-161.25,-165,-127.5,-92.08333333333333
1278,-26.25,-11.25,-82.5,-108.75,-153.75,-161.25,-157.5,-127.5,-92.08333333333333
1279,-22.5,-15,-82.5,-105,-153.75,-161.25,-157.5,-127.5,-91.66666666666667
1280,-26.25,-18.75,-86.25,-105,-157.5,-157.5,-153.75,-127.5,-92.5
1281,-26.25,-22.5,-86.25,-108.75,-157.5,-157.5,-153.75,-127.5,-93.33333333333333
1282,-26.25,-18.75,-90,-108.75,-161.25,-157.5,-153.75,-127.5,-93.75
1283,-30,-18.75,-90,-108.75,-161.25,-157.5,-157.5,-131.25,-95.0
1284,-33.75,-26.25,-86.25,-112.5,-157.5,-157.5,-161.25,-131.25,-96.25
1285,-33.75,-30,-90,-112.5,-161.25,-157.5,-161.25,-123.75,-96.66666666666667
1286,-33.75,-37.5,-86.25,-112.5,-157.5,-157.5,-157.5,-123.75,-96.25
1287,-37.5,-48.75,-82.5,-112.5,-153.75,-153.75,-157.5,-123.75,-96.66666666666667
1288,-37.5,-60,-82.5,-108.75,-153.75,-153.75,-153.75,-120,-96.66666666666667
1289,-41.25,-67.5,-82.5,-105,-150,-153.75,-153.75,-116.25,-96.66666666666667
1290,-37.5,-75,-78.75,-101.25,-146.25,-153.75,-150,-116.25,-95.41666666666667
1291,-37.5,-82.5,-78.75,-101.25,-146.25,-146.25,-150,-116.25,-95.41666666666667
1292,-41.25,-86.25,-75,-101.25,-150,-150,-146.25,-112.5,-95.83333333333333
1293,-33.75,-82.5,-75,-97.5,-146.25,-146.25,-146.25,-112.5,-93.33333333333333
1294,-33.75,-78.75,-78.75,-101.25,-150,-146.25,-150,-116.25,-95.0
1295,-33.75,-67.5,-82.5,-108.75,-150,-150,-150,-116.25,-95.41666666666667
1296,-33.75,-56.25,-86.25,-116.25,-157.5,-153.75,-157.5,-120,-97.91666666666667
1297,-33.75,-37.5,-93.75,-123.75,-161.25,-161.25,-161.25,-127.5,-100.0
1298,-33.75,-22.5,-101.25,-135,-172.5,-168.75,-168.75,-131.25,-103.75
1299,-33.75,-7.5,-105,-142.5,-180,-176.25,-176.25,-138.75,-106.66666666666667
1300,-37.5,0,-112.5,-146.25,-183.75,-183.75,-183.75,-146.25,-110.41666666666667
1301,-37.5,0,-116.25,-150,-187.5,-191.25,-187.5,-150,-113.33333333333333
1302,-37.5,-7.5,-116.25,-150,-187.5,-191.25,-187.5,-150,-114.16666666666667
1303,-41.25,-22.5,-112.5,-146.25,-183.75,-187.5,-183.75,-146.25,-113.75
1304,-37.5,-37.5,-105,-142.5,-180,-183.75,-180,-142.5,-112.08333333333333
1305,-41.25,-52.5,-105,-138.75,-180,-180,-180,-138.75,-112.91666666666667
1306,-33.75,-63.75,-93.75,-135,-176.25,-172.5,-176.25,-135,-109.58333333333333
1307,-33.75,-75,-90,-131.25,-172.5,-168.75,-168.75,-131.25,-107.91666666666667
1308,-33.75,-82.5,-86.25,-127.5,-168.75,-161.25,-165,-120,-105.0
1309,-33.75,-90,-82.5,-123.75,-161.25,-153.75,-157.5,-120,-102.5
1310,-37.5,-93.75,-78.75,-120,-157.5,-150,-150,-116.25,-100.41666666666667
1311,-33.75,-97.5,-71.25,-120,-157.5,-146.25,-150,-108.75,-98.33333333333333
1312,-37.5,-97.5,-71.25,-116.25,-153.75,-150,-146.25,-108.75,-97.91666666666667
1313,-45,-97.5,-71.25,-120,-157.5,-150,-153.75,-108.75,-100.41666666666667
1314,-45,-90,-75,-120,-157.5,-153.75,-153.75,-116.25,-101.25
1315,-48.75,-82.5,-78.75,-123.75,-161.25,-157.5,-157.5,-120,-103.33333333333333
1316,-52.5,-75,-90,-127.5,-168.75,-161.25,-165,-127.5,-107.5
1317,-52.5,-67.5,-97.5,-135,-176.25,-168.75,-172.5,-131.25,-111.25
1318,-52.5,-60,-105,-142.5,-176.25,-172.5,-172.5,-135,-112.91666666666667
1319,-52.5,-48.75,-108.75,-150,-183.75,-176.25,-180,-142.5,-115.83333333333333
1320,-52.5,-41.25,-116.25,-157.5,-191.25,-183.75,-187.5,-146.25,-119.58333333333333
1321,-52.5,-37.5,-116.25,-161.25,-195,-187.5,-187.5,-150,-120.83333333333333
1322,-56.25,-37.5,-120,-165,-198.75,-187.5,-195,-150,-123.33333333333333
1323,-52.5,-33.75,-116.25,-168.75,-198.75,-191.25,-195,-150,-122.91666666666667
1324,-56.25,-37.5,-120,-165,-198.75,-191.25,-195,-153.75,-124.16666666666667
1325,-60,-37.5,-116.25,-168.75,-198.75,-187.5,-191.25,-153.75,-123.75
1326,-60,-41.25,-116.25,-165,-198.75,-187.5,-195,-150,-123.75
1327,-60,-45,-112.5,-161.25,-198.75,-187.5,-191.25,-153.75,-123.33333333333333
1328,-60,-52.5,-116.25,-161.25,-195,-187.5,-195,-153.75,-124.58333333333333
1329,-63.75,-56.25,-112.5,-157.5,-195,-187.5,-191.25,-153.75,-124.16666666666667
1330,-63.75,-63.75,-112.5,-157.5,-195,-183.75,-191.25,-150,-124.16666666666667
1331,-60,-71.25,-112.5,-157.5,-191.25,-183.75,-191.25,-150,-124.16666666666667
1332,-60,-75,-108.75,-157.5,-187.5,-183.75,-187.5,-150,-123.33333333333333
1333,-60,-82.5,-108.75,-153.75,-187.5,-183.75,-191.25,-146.25,-123.75
1334,-60,-82.5,-105,-150,-191.25,-180,-191.25,-142.5,-122.5
1335,-60,-82.5,-105,-150,-187.5,-183.75,-187.5,-142.5,-122.08333333333333
1336,-60,-82.5,-101.25,-150,-187.5,-180,-187.5,-142.5,-121.25
1337,-56.25,-86.25,-97.5,-146.25,-180,-176.25,-183.75,-142.5,-118.75
1338,-52.5,-90,-93.75,-142.5,-176.25,-172.5,-180,-138.75,-116.25
1339,-48.75,-90,-82.5,-138.75,-172.5,-168.75,-172.5,-131.25,-111.66666666666667
1340,-45,-93.75,-75,-131.25,-165,-161.25,-165,-123.75,-106.66666666666667
1341,-45,-97.5,-67.5,-123.75,-157.5,-153.75,-157.5,-120,-102.5
1342,-41.25,-93.75,-60,-112.5,-150,-146.25,-153.75,-116.25,-97.08333333333333
1343,-37.5,-90,-52.5,-108.75,-142.5,-142.5,-146.25,-112.5,-92.5
1344,-30,-82.5,-41.25,-101.25,-138.75,-138.75,-142.5,-105,-86.66666666666667
1345,-30,-63.75,-37.5,-97.5,-135,-135,-142.5,-101.25,-82.5
1346,-22.5,-48.75,-33.75,-93.75,-135,-135,-142.5,-101.25,-79.16666666666667
1347,-18.75,-30,-33.75,-97.5,-131.25,-135,-138.75,-101.25,-76.25
1348,-18.75,-11.25,-33.75,-97.5,-138.75,-138.75,-142.5,-105,-76.25
1349,-15,0,-33.75,-101.25,-138.75,-138.75,-142.5,-105,-75.0
1350,-15,11.25,-30,-101.25,-142.5,-142.5,-146.25,-108.75,-75.0
1351,-15,22.5,-33.75,-97.5,-146.25,-146.25,-146.25,-108.75,-74.58333333333333
1352,-15,22.5,-30,-97.5,-142.5,-146.25,-150,-108.75,-74.16666666666667
1353,-15,26.25,-26.25,-101.25,-146.25,-142.5,-146.25,-112.5,-73.75
1354,-15,18.75,-26.25,-97.5,-142.5,-146.25,-150,-112.5,-74.58333333333333
1355,-18.75,22.5,-26.25,-97.5,-138.75,-142.5,-146.25,-116.25,-73.75
1356,-15,26.25,-30,-97.5,-142.5,-142.5,-150,-112.5,-73.75
1357,-18.75,30,-33.75,-93.75,-138.75,-142.5,-146.25,-116.25,-73.33333333333333
1358,-15,45,-37.5,-101.25,-135,-138.75,-150,-116.25,-72.08333333333333
1359,-15,63.75,-48.75,-101.25,-138.75,-142.5,-146.25,-116.25,-71.66666666666667
1360,-7.5,82.5,-60,-105,-138.75,-146.25,-146.25,-116.25,-70.83333333333333
1361,-3.75,97.5,-71.25,-112.5,-142.5,-146.25,-150,-112.5,-71.25
1362,0,101.25,-82.5,-112.5,-138.75,-142.5,-146.25,-116.25,-70.83333333333333
1363,3.75,101.25,-93.75,-120,-142.5,-146.25,-146.25,-112.5,-72.91666666666667
1364,11.25,90,-101.25,-116.25,-142.5,-138.75,-142.5,-108.75,-72.08333333333333
1365,22.5,75,-105,-116.25,-142.5,-138.75,-142.5,-101.25,-72.08333333333333
1366,26.25,52.5,-105,-120,-135,-138.75,-138.75,-97.5,-72.91666666666667
1367,33.75,33.75,-105,-116.25,-138.75,-138.75,-135,-97.5,-73.75
1368,37.5,22.5,-105,-120,-135,-138.75,-131.25,-97.5,-74.16666666666667
1369,41.25,15,-108.75,-116.25,-135,-138.75,-131.25,-97.5,-74.58333333333333
1370,41.25,11.25,-108.75,-123.75,-135,-138.75,-131.25,-93.75,-75.41666666666667
1371,37.5,3.75,-105,-120,-135,-135,-131.25,-93.75,-75.41666666666667
1372,41.25,3.75,-105,-123.75,-131.25,-135,-127.5,-90,-74.16666666666667
1373,37.5,3.75,-101.25,-120,-131.25,-135,-127.5,-90,-73.75
1374,33.75,3.75,-101.25,-120,-131.25,-131.25,-127.5,-90,-73.75
1375,33.75,0,-105,-120,-135,-135,-131.25,-93.75,-76.25
1376,30,0,-101.25,-120,-135,-138.75,-135,-93.75,-77.08333333333333
1377,26.25,-3.75,-101.25,-127.5,-142.5,-138.75,-138.75,-101.25,-80.83333333333333
1378,22.5,-3.75,-105,-131.25,-146.25,-146.25,-146.25,-108.75,-85.0
1379,18.75,-3.75,-105,-135,-150,-150,-153.75,-116.25,-88.33333333333333
1380,11.25,-7.5,-105,-138.75,-153.75,-157.5,-161.25,-123.75,-92.91666666666667
1381,3.75,-11.25,-105,-146.25,-161.25,-161.25,-165,-127.5,-97.08333333333333
1382,0,-15,-105,-150,-165,-168.75,-168.75,-135,-100.83333333333333
1383,0,-22.5,-105,-150,-168.75,-172.5,-168.75,-135,-102.5
1384,-3.75,-30,-108.75,-153.75,-172.5,-176.25,-168.75,-135,-105.41666666666667
1385,-3.75,-30,-108.75,-153.75,-176.25,-176.25,-168.75,-138.75,-106.25
1386,-3.75,-33.75,-108.75,-153.75,-176.25,-176.25,-168.75,-142.5,-107.08333333333333
1387,-3.75,-37.5,-112.5,-161.25,-180,-180,-172.5,-142.5,-110.0
1388,0,-37.5,-112.5,-161.25,-180,-183.75,-176.25,-142.5,-110.41666666666667
1389,0,-33.75,-112.5,-165,-183.75,-183.75,-180,-146.25,-111.66666666666667
1390,0,-33.75,-112.5,-165,-183.75,-187.5,-183.75,-146.25,-112.5
1391,0,-37.5,-112.5,-165,-183.75,-187.5,-187.5,-150,-113.75
1392,0,-37.5,-112.5,-161.25,-187.5,-191.25,-191.25,-153.75,-115.0
1393,0,-33.75,-112.5,-165,-187.5,-195,-195,-153.75,-115.83333333333333
1394,0,-33.75,-112.5,-165,-187.5,-198.75,-195,-157.5,-116.66666666666667
1395,-3.75,-30,-112.5,-168.75,-191.25,-195,-195,-157.5,-117.08333333333333
1396,-3.75,-22.5,-116.25,-168.75,-191.25,-198.75,-195,-161.25,-117.5
1397,-7.5,-15,-120,-172.5,-198.75,-202.5,-195,-165,-119.58333333333333
1398,-15,-7.5,-123.75,-176.25,-198.75,-206.25,-202.5,-165,-121.66666666666667
1399,-22.5,0,-135,-180,-202.5,-202.5,-206.25,-168.75,-124.16666666666667
1400,-26.25,7.5,-142.5,-187.5,-206.25,-210,-206.25,-176.25,-127.5
1401,-30,15,-142.5,-191.25,-206.25,-210,-210,-176.25,-127.91666666666667
1402,-30,18.75,-142.5,-195,-206.25,-213.75,-213.75,-176.25,-128.75
1403,-26.25,15,-146.25,-195,-210,-210,-213.75,-176.25,-129.16666666666666
1404,-30,11.25,-138.75,-195,-202.5,-210,-210,-172.5,-127.5
1405,-26.25,0,-131.25,-187.5,-198.75,-206.25,-206.25,-165,-124.58333333333333
1406,-22.5,-15,-123.75,-176.25,-195,-202.5,-202.5,-157.5,-121.66666666666667
1407,-26.25,-37.5,-116.25,-168.75,-191.25,-195,-191.25,-153.75,-120.0
1408,-22.5,-63.75,-105,-157.5,-183.75,-191.25,-183.75,-146.25,-117.08333333333333
1409,-22.5,-90,-86.25,-138.75,-172.5,-183.75,-180,-142.5,-112.91666666666667
1410,-26.25,-108.75,-71.25,-120,-165,-183.75,-180,-142.5,-110.83333333333333
1411,-22.5,-127.5,-52.5,-97.5,-157.5,-180,-183.75,-150,-107.91666666666667
1412,-18.75,-142.5,-26.25,-71.25,-146.25,-183.75,-187.5,-153.75,-103.33333333333333
1413,-11.25,-146.25,0,-37.5,-127.5,-183.75,-198.75,-165,-96.66666666666667
1414,-3.75,-138.75,33.75,0,-108.75,-183.75,-206.25,-172.5,-86.66666666666667
1415,7.5,-123.75,71.25,48.75,-86.25,-180,-213.75,-183.75,-73.33333333333333
1416,30,-101.25,116.25,105,-56.25,-172.5,-210,-187.5,-52.916666666666664
1417,48.75,-71.25,153.75,165,-22.5,-161.25,-210,-183.75,-31.25
1418,75,-30,195,232.5,18.75,-131.25,-191.25,-168.75,0.0
1419,108.75,22.5,228.75,296.25,71.25,-93.75,-157.5,-146.25,36.666666666666664
1420,146.25,82.5,258.75,363.75,131.25,-37.5,-112.5,-112.5,80.0
1421,187.5,150,281.25,431.25,202.5,30,-45,-56.25,131.25
1422,232.5,225,292.5,495,281.25,112.5,33.75,11.25,187.08333333333334
1423,273.75,303.75,292.5,547.5,360,206.25,127.5,97.5,245.41666666666666
1424,322.5,390,288.75,592.5,450,315,240,198.75,310.8333333333333
1425,367.5,480,270,618.75,532.5,431.25,360,315,375.0
1426,412.5,581.25,240,633.75,618.75,555,487.5,435,440.4166666666667
1427,457.5,697.5,195,630,697.5,678.75,622.5,566.25,505.0
1428,502.5,821.25,138.75,615,772.5,810,768.75,701.25,570.0
1429,540,948.75,67.5,577.5,840,937.5,907.5,832.5,627.9166666666666
1430,570,1072.5,-11.25,525,900,1061.25,1050,963.75,681.25
1431,588.75,1185,-105,453.75,952.5,1181.25,1185,1083.75,725.0
1432,600,1278.75,-195,371.25,990,1290,1312.5,1192.5,760.0
1433,596.25,1338.75,-285,281.25,1023.75,1387.5,1421.25,1282.5,782.9166666666666
1434,577.5,1372.5,-363.75,180,1038.75,1462.5,1503.75,1353.75,791.6666666666666
1435,547.5,1365,-431.25,78.75,1035,1503.75,1548.75,1383.75,781.25
1436,502.5,1331.25,-483.75,-30,1012.5,1507.5,1552.5,1383.75,752.9166666666666
1437,438.75,1260,-528.75,-138.75,952.5,1466.25,1507.5,1338.75,699.5833333333334
1438,367.5,1170,-558.75,-251.25,862.5,1368.75,1413.75,1252.5,625.0
1439,288.75,1057.5,-585,-367.5,738.75,1230,1275,1132.5,530.0
1440,206.25,937.5,-600,-476.25,585,1053.75,1095,978.75,420.0
1441,120,810,-611.25,-581.25,416.25,847.5,888.75,802.5,299.1666666666667
1442,45,686.25,-615,-667.5,240,630,682.5,618.75,180.0
1443,-15,570,-615,-727.5,82.5,427.5,480,450,72.5
1444,-67.5,461.25,-611.25,-765,-48.75,255,303.75,292.5,-20.0
1445,-108.75,363.75,-596.25,-772.5,-146.25,112.5,165,172.5,-90.0
1446,-131.25,273.75,-573.75,-757.5,-206.25,11.25,67.5,82.5,-137.08333333333334
1447,-146.25,195,-543.75,-720,-236.25,-45,0,26.25,-163.33333333333334
1448,-146.25,131.25,-510,-671.25,-240,-78.75,-37.5,0,-172.5
1449,-142.5,78.75,-472.5,-615,-228.75,-93.75,-56.25,-11.25,-171.25
1450,-131.25,45,-435,-551.25,-213.75,-97.5,-63.75,-18.75,-162.91666666666666
1451,-120,22.5,-401.25,-487.5,-198.75,-97.5,-67.5,-22.5,-152.5
1452,-101.25,18.75,-371.25,-427.5,-183.75,-93.75,-75,-22.5,-139.58333333333334
1453,-82.5,26.25,-341.25,-371.25,-168.75,-93.75,-78.75,-33.75,-127.08333333333333
1454,-60,33.75,-315,-315,-153.75,-93.75,-82.5,-41.25,-114.16666666666667
1455,-37.5,41.25,-292.5,-266.25,-138.75,-90,-82.5,-48.75,-101.66666666666667
1456,-18.75,52.5,-266.25,-221.25,-120,-86.25,-78.75,-56.25,-88.33333333333333
1457,-3.75,56.25,-243.75,-187.5,-101.25,-78.75,-78.75,-56.25,-77.08333333333333
1458,11.25,52.5,-217.5,-157.5,-82.5,-67.5,-75,-52.5,-65.41666666666667
1459,18.75,45,-191.25,-131.25,-63.75,-60,-67.5,-48.75,-55.416666666666664
1460,22.5,41.25,-165,-116.25,-52.5,-48.75,-60,-45,-47.083333333333336
1461,22.5,33.75,-142.5,-101.25,-41.25,-45,-60,-45,-42.083333333333336
1462,18.75,22.5,-123.75,-97.5,-41.25,-45,-60,-45,-41.25
1463,15,18.75,-112.5,-90,-48.75,-52.5,-71.25,-52.5,-43.75
1464,7.5,22.5,-105,-86.25,-56.25,-63.75,-78.75,-60,-46.666666666666664
1465,0,18.75,-105,-82.5,-67.5,-75,-90,-75,-52.916666666666664
1466,-3.75,15,-105,-78.75,-75,-90,-105,-86.25,-58.75
1467,-3.75,18.75,-108.75,-78.75,-82.5,-101.25,-116.25,-97.5,-63.333333333333336
1468,-3.75,18.75,-108.75,-71.25,-82.5,-108.75,-123.75,-108.75,-65.41666666666667
1469,0,15,-101.25,-67.5,-82.5,-112.5,-127.5,-105,-64.58333333333333
1470,3.75,11.25,-101.25,-63.75,-75,-108.75,-123.75,-105,-62.5
1471,7.5,11.25,-93.75,-60,-71.25,-105,-116.25,-97.5,-58.333333333333336
1472,15,11.25,-90,-56.25,-63.75,-97.5,-112.5,-86.25,-53.333333333333336
1473,22.5,11.25,-82.5,-56.25,-60,-93.75,-108.75,-78.75,-49.583333333333336
1474,22.5,15,-78.75,-56.25,-60,-90,-101.25,-75,-47.083333333333336
1475,26.25,11.25,-78.75,-56.25,-60,-90,-101.25,-75,-47.083333333333336
1476,26.25,15,-78.75,-52.5,-63.75,-93.75,-101.25,-75,-47.083333333333336
1477,30,11.25,-78.75,-52.5,-67.5,-93.75,-105,-78.75,-48.333333333333336
1478,33.75,11.25,-78.75,-48.75,-67.5,-97.5,-108.75,-82.5,-48.75
1479,33.75,3.75,-82.5,-48.75,-71.25,-97.5,-112.5,-90,-51.666666666666664
1480,33.75,0,-86.25,-45,-67.5,-97.5,-112.5,-93.75,-52.083333333333336
1481,30,-3.75,-82.5,-41.25,-71.25,-97.5,-112.5,-97.5,-52.916666666666664
1482,30,-3.75,-86.25,-41.25,-67.5,-97.5,-116.25,-97.5,-53.333333333333336
1483,30,-7.5,-86.25,-41.25,-67.5,-97.5,-112.5,-93.75,-52.916666666666664
1484,22.5,-7.5,-86.25,-37.5,-63.75,-93.75,-108.75,-93.75,-52.083333333333336
1485,18.75,-7.5,-82.5,-37.5,-60,-93.75,-105,-86.25,-50.416666666666664
1486,18.75,-7.5,-78.75,-33.75,-60,-86.25,-105,-78.75,-47.916666666666664
1487,22.5,-3.75,-75,-30,-52.5,-86.25,-97.5,-78.75,-44.583333333333336
1488,18.75,-7.5,-75,-30,-52.5,-78.75,-97.5,-75,-44.166666666666664
1489,22.5,-7.5,-75,-26.25,-48.75,-78.75,-93.75,-75,-42.5
1490,26.25,0,-78.75,-30,-52.5,-82.5,-93.75,-75,-42.916666666666664
1491,30,3.75,-78.75,-26.25,-52.5,-82.5,-97.5,-78.75,-42.5
1492,33.75,18.75,-86.25,-30,-52.5,-86.25,-93.75,-82.5,-42.083333333333336
1493,41.25,37.5,-90,-33.75,-56.25,-90,-101.25,-86.25,-42.083333333333336
1494,48.75,56.25,-97.5,-37.5,-60,-93.75,-105,-90,-42.083333333333336
1495,52.5,71.25,-105,-37.5,-63.75,-93.75,-108.75,-90,-41.666666666666664
1496,52.5,82.5,-112.5,-41.25,-67.5,-97.5,-108.75,-93.75,-42.916666666666664
1497,52.5,78.75,-112.5,-41.25,-67.5,-97.5,-105,-90,-42.5
1498,52.5,71.25,-112.5,-41.25,-67.5,-90,-105,-86.25,-42.083333333333336
1499,52.5,56.25,-105,-37.5,-60,-82.5,-97.5,-78.75,-39.166666666666664
1500,48.75,30,-101.25,-26.25,-52.5,-78.75,-86.25,-71.25,-37.5
1501,52.5,7.5,-93.75,-18.75,-45,-71.25,-78.75,-63.75,-34.583333333333336
1502,52.5,-7.5,-86.25,-3.75,-33.75,-63.75,-71.25,-56.25,-30.0
1503,52.5,-15,-82.5,0,-26.25,-56.25,-63.75,-52.5,-27.083333333333332
1504,56.25,-15,-82.5,7.5,-22.5,-52.5,-60,-52.5,-24.583333333333332
1505,60,-3.75,-78.75,11.25,-18.75,-52.5,-60,-48.75,-21.25
1506,63.75,3.75,-86.25,11.25,-15,-48.75,-60,-52.5,-20.416666666666668
1507,67.5,18.75,-86.25,11.25,-15,-45,-60,-48.75,-17.5
1508,67.5,33.75,-90,7.5,-15,-48.75,-60,-48.75,-17.083333333333332
1509,67.5,45,-93.75,3.75,-15,-45,-60,-52.5,-16.666666666666668
1510,71.25,56.25,-93.75,3.75,-18.75,-45,-56.25,-52.5,-15.0
1511,75,63.75,-97.5,3.75,-18.75,-45,-60,-48.75,-14.166666666666666
1512,78.75,71.25,-101.25,3.75,-22.5,-41.25,-56.25,-52.5,-13.333333333333334
1513,78.75,75,-101.25,0,-18.75,-41.25,-56.25,-52.5,-12.916666666666666
1514,82.5,75,-108.75,0,-22.5,-45,-52.5,-56.25,-14.166666666666666
1515,82.5,75,-108.75,0,-18.75,-41.25,-56.25,-56.25,-13.75
1516,82.5,78.75,-112.5,0,-15,-37.5,-56.25,-56.25,-12.916666666666666
1517,82.5,78.75,-116.25,3.75,-15,-37.5,-52.5,-56.25,-12.5
1518,86.25,78.75,-120,3.75,-15,-37.5,-48.75,-48.75,-11.25
1519,86.25,71.25,-116.25,3.75,-7.5,-30,-48.75,-48.75,-10.0
1520,86.25,63.75,-116.25,11.25,-3.75,-26.25,-45,-45,-8.333333333333334
1521,86.25,52.5,-108.75,18.75,0,-22.5,-33.75,-33.75,-4.583333333333333
1522,90,37.5,-108.75,26.25,3.75,-15,-30,-26.25,-2.5
1523,90,22.5,-108.75,30,11.25,-7.5,-22.5,-18.75,-0.4166666666666667
1524,90,15,-105,33.75,11.25,-7.5,-22.5,-18.75,-0.4166666666666667
1525,90,15,-108.75,37.5,15,-3.75,-15,-15,1.6666666666666667
1526,90,18.75,-112.5,37.5,15,-3.75,-18.75,-15,1.25
1527,90,26.25,-108.75,33.75,15,-3.75,-18.75,-18.75,1.6666666666666667
1528,97.5,33.75,-116.25,33.75,15,-7.5,-22.5,-22.5,1.25
1529,105,52.5,-120,30,7.5,-7.5,-22.5,-22.5,2.5
1530,112.5,67.5,-120,30,7.5,-11.25,-26.25,-22.5,4.166666666666667
1531,123.75,78.75,-127.5,26.25,3.75,-15,-26.25,-26.25,4.166666666666667
1532,131.25,90,-127.5,26.25,3.75,-15,-26.25,-26.25,6.25
1533,142.5,97.5,-127.5,26.25,3.75,-15,-30,-26.25,7.916666666666667
1534,150,97.5,-131.25,26.25,0,-15,-30,-22.5,8.333333333333334
1535,150,97.5,-131.25,22.5,0,-18.75,-30,-22.5,7.5
1536,150,97.5,-135,22.5,0,-18.75,-26.25,-26.25,7.083333333333333
1537,146.25,101.25,-131.25,22.5,0,-18.75,-33.75,-22.5,7.083333333333333
1538,150,101.25,-138.75,18.75,0,-22.5,-30,-22.5,6.25
1539,146.25,101.25,-135,22.5,-3.75,-22.5,-30,-22.5,6.25
1540,146.25,101.25,-131.25,22.5,-7.5,-22.5,-26.25,-18.75,7.083333333333333
1541,146.25,97.5,-135,22.5,-3.75,-22.5,-30,-18.75,6.25
1542,142.5,101.25,-135,26.25,-7.5,-22.5,-26.25,-18.75,6.666666666666667
1543,146.25,101.25,-135,22.5,-15,-26.25,-30,-18.75,5.0
1544,150,97.5,-135,18.75,-18.75,-30,-30,-18.75,3.75
1545,146.25,97.5,-138.75,22.5,-18.75,-30,-33.75,-18.75,2.9166666666666665
1546,150,90,-138.75,15,-18.75,-33.75,-37.5,-18.75,0.8333333333333334
1547,150,78.75,-138.75,18.75,-22.5,-37.5,-33.75,-18.75,-0.4166666666666667
1548,150,63.75,-131.25,15,-22.5,-33.75,-37.5,-15,-1.25
1549,150,52.5,-131.25,15,-26.25,-37.5,-33.75,-18.75,-3.3333333333333335
1550,146.25,41.25,-127.5,18.75,-26.25,-41.25,-33.75,-15,-4.166666666666667
1551,150,33.75,-123.75,15,-30,-41.25,-33.75,-15,-5.0
1552,146.25,33.75,-123.75,15,-33.75,-48.75,-41.25,-15,-7.5
1553,146.25,37.5,-120,15,-41.25,-52.5,-41.25,-22.5,-8.75
1554,146.25,41.25,-120,11.25,-48.75,-60,-45,-22.5,-10.833333333333334
1555,150,45,-120,7.5,-52.5,-67.5,-48.75,-26.25,-12.5
1556,146.25,41.25,-120,3.75,-60,-67.5,-56.25,-30,-15.833333333333334
1557,146.25,45,-120,0,-67.5,-75,-63.75,-33.75,-18.75
1558,146.25,45,-120,0,-67.5,-82.5,-67.5,-37.5,-20.416666666666668
1559,142.5,45,-116.25,-3.75,-71.25,-86.25,-71.25,-41.25,-22.5
1560,142.5,48.75,-120,-7.5,-75,-90,-75,-45,-24.583333333333332
1561,135,52.5,-116.25,-11.25,-82.5,-93.75,-78.75,-48.75,-27.083333333333332
1562,127.5,60,-112.5,-11.25,-82.5,-97.5,-82.5,-52.5,-27.916666666666668
1563,123.75,63.75,-116.25,-15,-86.25,-97.5,-86.25,-56.25,-30.0
1564,112.5,67.5,-108.75,-15,-90,-101.25,-86.25,-60,-31.25
1565,101.25,67.5,-105,-15,-90,-101.25,-86.25,-63.75,-32.5
1566,93.75,67.5,-97.5,-11.25,-93.75,-97.5,-86.25,-60,-31.666666666666668
1567,86.25,56.25,-90,-7.5,-90,-97.5,-90,-63.75,-32.916666666666664
1568,75,48.75,-86.25,-7.5,-90,-101.25,-90,-67.5,-35.416666666666664
1569,71.25,33.75,-78.75,-7.5,-90,-97.5,-93.75,-63.75,-36.25
1570,63.75,22.5,-71.25,0,-86.25,-101.25,-97.5,-67.5,-37.5
1571,63.75,11.25,-63.75,0,-86.25,-105,-97.5,-71.25,-38.75
1572,60,0,-60,0,-82.5,-105,-101.25,-75,-40.416666666666664
1573,52.5,-3.75,-56.25,0,-86.25,-108.75,-101.25,-78.75,-42.5
1574,45,-11.25,-52.5,0,-82.5,-112.5,-101.25,-82.5,-44.166666666666664
1575,33.75,-11.25,-48.75,0,-86.25,-112.5,-108.75,-86.25,-46.666666666666664
1576,30,-11.25,-52.5,-3.75,-90,-116.25,-112.5,-90,-49.583333333333336
1577,18.75,-7.5,-48.75,-7.5,-93.75,-123.75,-120,-97.5,-53.333333333333336
1578,7.5,0,-52.5,-15,-97.5,-131.25,-127.5,-101.25,-57.5
1579,3.75,7.5,-56.25,-22.5,-101.25,-138.75,-131.25,-108.75,-60.833333333333336
1580,0,11.25,-56.25,-26.25,-112.5,-142.5,-138.75,-120,-65.0
1581,-7.5,15,-63.75,-33.75,-116.25,-146.25,-138.75,-123.75,-68.33333333333333
1582,-11.25,11.25,-63.75,-37.5,-120,-150,-142.5,-123.75,-70.83333333333333
1583,-11.25,3.75,-60,-37.5,-120,-146.25,-142.5,-123.75,-70.83333333333333
1584,-15,-11.25,-56.25,-41.25,-116.25,-146.25,-138.75,-123.75,-72.08333333333333
1585,-22.5,-30,-48.75,-33.75,-108.75,-142.5,-138.75,-120,-71.66666666666667
1586,-22.5,-56.25,-41.25,-30,-105,-138.75,-131.25,-116.25,-71.25
1587,-30,-75,-33.75,-26.25,-101.25,-135,-131.25,-120,-72.5
1588,-33.75,-86.25,-30,-26.25,-101.25,-131.25,-131.25,-116.25,-72.91666666666667
1589,-41.25,-90,-30,-30,-97.5,-131.25,-131.25,-116.25,-74.16666666666667
1590,-41.25,-86.25,-30,-30,-101.25,-135,-135,-123.75,-75.83333333333333
1591,-45,-78.75,-33.75,-37.5,-101.25,-135,-135,-123.75,-76.66666666666667
1592,-48.75,-67.5,-37.5,-41.25,-105,-135,-146.25,-127.5,-78.75
1593,-48.75,-60,-37.5,-48.75,-112.5,-142.5,-150,-135,-81.66666666666667
1594,-52.5,-56.25,-41.25,-56.25,-120,-146.25,-150,-138.75,-84.58333333333333
1595,-52.5,-60,-45,-60,-123.75,-150,-153.75,-142.5,-87.5
1596,-52.5,-67.5,-45,-67.5,-123.75,-153.75,-157.5,-146.25,-90.41666666666667
1597,-56.25,-75,-45,-67.5,-127.5,-157.5,-157.5,-142.5,-92.08333333333333
1598,-60,-86.25,-45,-67.5,-131.25,-153.75,-157.5,-142.5,-93.75
1599,-60,-97.5,-41.25,-71.25,-131.25,-161.25,-161.25,-146.25,-96.66666666666667
1600,-63.75,-108.75,-41.25,-71.25,-131.25,-157.5,-157.5,-142.5,-97.08333333333333
1601,-67.5,-116.25,-37.5,-71.25,-127.5,-161.25,-161.25,-142.5,-98.33333333333333
1602,-75,-127.5,-37.5,-71.25,-131.25,-157.5,-161.25,-146.25,-100.83333333333333
1603,-78.75,-135,-37.5,-71.25,-127.5,-161.25,-161.25,-138.75,-101.25
1604,-86.25,-135,-37.5,-71.25,-131.25,-161.25,-161.25,-142.5,-102.91666666666667
1605,-90,-131.25,-37.5,-75,-131.25,-165,-161.25,-142.5,-103.75
1606,-93.75,-131.25,-37.5,-75,-135,-165,-168.75,-142.5,-105.41666666666667
1607,-93.75,-123.75,-41.25,-75,-138.75,-165,-172.5,-146.25,-106.25
1608,-93.75,-116.25,-45,-78.75,-138.75,-168.75,-172.5,-153.75,-107.5
1609,-93.75,-112.5,-45,-86.25,-142.5,-176.25,-176.25,-157.5,-110.0
1610,-93.75,-105,-45,-90,-146.25,-180,-180,-161.25,-111.25
1611,-93.75,-105,-52.5,-90,-150,-183.75,-183.75,-168.75,-114.16666666666667
1612,-90,-101.25,-56.25,-93.75,-153.75,-187.5,-183.75,-168.75,-115.0
1613,-97.5,-101.25,-56.25,-101.25,-153.75,-187.5,-191.25,-168.75,-117.5
1614,-97.5,-97.5,-63.75,-101.25,-153.75,-191.25,-195,-172.5,-119.16666666666667
1615,-97.5,-93.75,-63.75,-105,-157.5,-195,-195,-172.5,-120.0
1616,-101.25,-93.75,-67.5,-105,-157.5,-195,-195,-172.5,-120.83333333333333
1617,-101.25,-90,-67.5,-105,-157.5,-195,-195,-172.5,-120.41666666666667
1618,-101.25,-90,-67.5,-105,-161.25,-195,-198.75,-172.5,-121.25
1619,-105,-90,-63.75,-105,-161.25,-195,-198.75,-172.5,-121.25
1620,-105,-90,-63.75,-105,-161.25,-191.25,-195,-172.5,-120.41666666666667
1621,-105,-90,-60,-101.25,-161.25,-191.25,-195,-172.5,-119.58333333333333
1622,-108.75,-86.25,-60,-101.25,-161.25,-191.25,-191.25,-172.5,-119.16666666666667
1623,-108.75,-90,-60,-97.5,-157.5,-187.5,-187.5,-172.5,-117.91666666666667
1624,-108.75,-97.5,-60,-93.75,-150,-180,-183.75,-165,-115.41666666666667
1625,-108.75,-105,-60,-93.75,-150,-176.25,-176.25,-165,-115.0
1626,-105,-112.5,-52.5,-86.25,-142.5,-168.75,-172.5,-157.5,-110.83333333333333
1627,-108.75,-123.75,-45,-82.5,-135,-161.25,-161.25,-150,-107.5
1628,-105,-135,-45,-75,-127.5,-153.75,-153.75,-142.5,-104.16666666666667
1629,-101.25,-142.5,-37.5,-67.5,-120,-146.25,-150,-135,-100.0
1630,-105,-150,-33.75,-63.75,-116.25,-146.25,-146.25,-131.25,-99.16666666666667
1631,-97.5,-150,-30,-60,-116.25,-146.25,-146.25,-127.5,-97.08333333333333
1632,-101.25,-146.25,-30,-60,-116.25,-146.25,-146.25,-127.5,-97.08333333333333
1633,-97.5,-146.25,-33.75,-60,-116.25,-146.25,-150,-131.25,-97.91666666666667
1634,-97.5,-146.25,-33.75,-63.75,-116.25,-150,-146.25,-131.25,-98.33333333333333
1635,-97.5,-142.5,-33.75,-60,-120,-146.25,-150,-135,-98.33333333333333
1636,-97.5,-142.5,-30,-63.75,-116.25,-150,-150,-131.25,-97.91666666666667
1637,-93.75,-146.25,-33.75,-63.75,-116.25,-146.25,-150,-135,-98.33333333333333
1638,-93.75,-146.25,-33.75,-63.75,-116.25,-142.5,-146.25,-131.25,-97.08333333333333
1639,-93.75,-146.25,-33.75,-63.75,-112.5,-142.5,-146.25,-131.25,-96.66666666666667
1640,-93.75,-146.25,-37.5,-63.75,-112.5,-142.5,-142.5,-127.5,-96.25
1641,-93.75,-146.25,-37.5,-60,-112.5,-138.75,-142.5,-127.5,-95.41666666666667
1642,-90,-146.25,-41.25,-63.75,-108.75,-142.5,-142.5,-127.5,-95.83333333333333
1643,-90,-146.25,-41.25,-60,-108.75,-142.5,-138.75,-127.5,-95.0
1644,-93.75,-142.5,-41.25,-63.75,-112.5,-142.5,-142.5,-131.25,-96.66666666666667
1645,-93.75,-135,-45,-67.5,-120,-146.25,-146.25,-131.25,-98.33333333333333
1646,-93.75,-127.5,-48.75,-71.25,-123.75,-150,-153.75,-138.75,-100.83333333333333
1647,-97.5,-120,-52.5,-75,-123.75,-153.75,-153.75,-142.5,-102.08333333333333
1648,-97.5,-116.25,-56.25,-78.75,-131.25,-157.5,-161.25,-150,-105.41666666666667
1649,-101.25,-112.5,-60,-86.25,-135,-165,-168.75,-153.75,-109.16666666666667
1650,-97.5,-112.5,-67.5,-86.25,-138.75,-165,-168.75,-157.5,-110.41666666666667
1651,-97.5,-112.5,-67.5,-90,-142.5,-172.5,-172.5,-157.5,-112.5
1652,-97.5,-116.25,-67.5,-93.75,-142.5,-176.25,-176.25,-161.25,-114.58333333333333
1653,-93.75,-108.75,-71.25,-90,-146.25,-172.5,-176.25,-157.5,-112.91666666666667
1654,-90,-105,-75,-93.75,-146.25,-176.25,-180,-157.5,-113.75
1655,-86.25,-97.5,-71.25,-93.75,-142.5,-172.5,-180,-161.25,-111.66666666666667
1656,-82.5,-93.75,-75,-93.75,-146.25,-172.5,-180,-157.5,-111.25
1657,-82.5,-82.5,-75,-93.75,-142.5,-172.5,-176.25,-157.5,-109.16666666666667
1658,-82.5,-75,-75,-93.75,-146.25,-168.75,-172.5,-153.75,-107.5
1659,-82.5,-78.75,-75,-90,-142.5,-161.25,-172.5,-150,-105.83333333333333
1660,-82.5,-78.75,-67.5,-90,-135,-157.5,-161.25,-146.25,-102.08333333333333
1661,-86.25,-86.25,-67.5,-90,-135,-150,-157.5,-142.5,-101.66666666666667
1662,-86.25,-90,-63.75,-90,-131.25,-146.25,-153.75,-138.75,-100.0
1663,-86.25,-93.75,-63.75,-90,-127.5,-142.5,-150,-135,-98.75
1664,-86.25,-105,-63.75,-90,-127.5,-142.5,-142.5,-135,-99.16666666666667
1665,-86.25,-116.25,-60,-86.25,-127.5,-138.75,-142.5,-127.5,-98.33333333333333
1666,-82.5,-123.75,-60,-82.5,-123.75,-138.75,-142.5,-127.5,-97.91666666666667
1667,-86.25,-138.75,-60,-82.5,-120,-135,-138.75,-123.75,-98.33333333333333
1668,-82.5,-153.75,-56.25,-78.75,-123.75,-135,-138.75,-123.75,-99.16666666666667
1669,-82.5,-161.25,-56.25,-78.75,-120,-135,-142.5,-120,-99.58333333333333
1670,-82.5,-172.5,-52.5,-78.75,-120,-135,-142.5,-120,-100.41666666666667
1671,-82.5,-176.25,-56.25,-78.75,-120,-135,-138.75,-120,-100.83333333333333
1672,-82.5,-176.25,-48.75,-82.5,-123.75,-135,-142.5,-120,-101.25
1673,-82.5,-180,-52.5,-78.75,-123.75,-135,-142.5,-116.25,-101.25
1674,-86.25,-180,-48.75,-82.5,-127.5,-135,-138.75,-120,-102.08333333333333
1675,-90,-180,-48.75,-86.25,-127.5,-138.75,-142.5,-120,-103.75
1676,-90,-180,-48.75,-86.25,-127.5,-138.75,-142.5,-120,-103.75
1677,-93.75,-180,-52.5,-90,-131.25,-142.5,-146.25,-120,-106.25
1678,-93.75,-176.25,-52.5,-90,-131.25,-146.25,-146.25,-123.75,-106.66666666666667
1679,-93.75,-176.25,-56.25,-90,-138.75,-146.25,-146.25,-123.75,-107.91666666666667
1680,-93.75,-172.5,-56.25,-90,-138.75,-150,-150,-127.5,-108.75
1681,-97.5,-165,-60,-93.75,-142.5,-153.75,-153.75,-131.25,-110.83333333333333
1682,-101.25,-157.5,-63.75,-97.5,-146.25,-157.5,-157.5,-138.75,-113.33333333333333
1683,-101.25,-146.25,-67.5,-105,-150,-161.25,-165,-142.5,-115.41666666666667
1684,-101.25,-135,-67.5,-105,-153.75,-165,-172.5,-146.25,-116.25
1685,-101.25,-123.75,-71.25,-112.5,-157.5,-168.75,-172.5,-153.75,-117.91666666666667
