samplenr,I,II,V1,V2,V3,V4,V5,V6,measurement
0,-37.5,101.25,-22.5,-63.75,-52.5,-90,-63.75,-18.75,-27.5
1,-45,86.25,-30,-63.75,-56.25,-93.75,-67.5,-18.75,-32.083333333333336
2,-48.75,71.25,-37.5,-71.25,-63.75,-105,-75,-26.25,-39.583333333333336
3,-67.5,48.75,-56.25,-93.75,-86.25,-127.5,-97.5,-48.75,-58.75
4,-71.25,41.25,-67.5,-108.75,-97.5,-135,-105,-52.5,-66.25
5,-52.5,48.75,-63.75,-108.75,-97.5,-127.5,-97.5,-45,-60.416666666666664
6,-37.5,56.25,-60,-105,-93.75,-127.5,-97.5,-45,-56.666666666666664
7,-30,60,-52.5,-105,-93.75,-127.5,-101.25,-45,-55.0
8,-45,52.5,-48.75,-108.75,-97.5,-127.5,-97.5,-45,-57.5
9,-63.75,37.5,-48.75,-112.5,-105,-131.25,-101.25,-48.75,-63.75
10,-60,37.5,-45,-112.5,-101.25,-131.25,-101.25,-52.5,-62.916666666666664
11,-45,45,-41.25,-108.75,-101.25,-131.25,-105,-56.25,-60.416666666666664
12,-56.25,37.5,-41.25,-108.75,-101.25,-131.25,-105,-56.25,-62.5
13,-82.5,30,-33.75,-97.5,-93.75,-127.5,-97.5,-48.75,-61.25
14,-82.5,41.25,-26.25,-90,-86.25,-120,-93.75,-41.25,-55.416666666666664
15,-56.25,56.25,-26.25,-90,-90,-123.75,-97.5,-45,-52.5
16,-56.25,52.5,-30,-97.5,-97.5,-127.5,-101.25,-52.5,-56.666666666666664
17,-67.5,37.5,-33.75,-105,-105,-135,-108.75,-56.25,-63.75
18,-75,26.25,-37.5,-112.5,-108.75,-138.75,-112.5,-60,-68.75
19,-82.5,11.25,-41.25,-120,-116.25,-146.25,-120,-67.5,-75.83333333333333
20,-90,-3.75,-48.75,-127.5,-123.75,-153.75,-131.25,-78.75,-84.16666666666667
21,-108.75,-11.25,-45,-131.25,-127.5,-157.5,-131.25,-82.5,-88.33333333333333
22,-112.5,7.5,-30,-120,-116.25,-146.25,-120,-71.25,-78.75
23,-97.5,26.25,-18.75,-108.75,-108.75,-142.5,-120,-71.25,-71.25
24,-71.25,33.75,-18.75,-112.5,-112.5,-146.25,-123.75,-75,-69.58333333333333
25,-63.75,45,-18.75,-112.5,-112.5,-146.25,-123.75,-71.25,-67.08333333333333
26,-86.25,30,-22.5,-108.75,-112.5,-146.25,-123.75,-71.25,-71.25
27,-105,-11.25,-48.75,-131.25,-135,-168.75,-146.25,-93.75,-93.33333333333333
28,-112.5,-22.5,-52.5,-142.5,-142.5,-176.25,-153.75,-101.25,-100.41666666666667
29,-108.75,-3.75,-41.25,-131.25,-131.25,-161.25,-142.5,-86.25,-89.58333333333333
30,-105,7.5,-37.5,-123.75,-127.5,-157.5,-135,-82.5,-84.58333333333333
31,-101.25,0,-41.25,-127.5,-127.5,-157.5,-138.75,-86.25,-86.66666666666667
32,-108.75,-15,-45,-138.75,-135,-165,-146.25,-93.75,-94.16666666666667
33,-120,-22.5,-48.75,-142.5,-138.75,-172.5,-150,-97.5,-99.16666666666667
34,-120,-22.5,-48.75,-142.5,-138.75,-168.75,-150,-97.5,-98.75
35,-116.25,-15,-48.75,-138.75,-135,-165,-146.25,-97.5,-95.83333333333333
36,-105,3.75,-37.5,-127.5,-127.5,-157.5,-135,-86.25,-85.83333333333333
37,-86.25,22.5,-30,-123.75,-123.75,-153.75,-131.25,-82.5,-78.75
38,-82.5,22.5,-30,-116.25,-120,-150,-127.5,-78.75,-75.83333333333333
39,-97.5,0,-41.25,-123.75,-127.5,-161.25,-138.75,-86.25,-86.25
40,-123.75,-33.75,-52.5,-138.75,-138.75,-168.75,-150,-101.25,-100.83333333333333
41,-142.5,-48.75,-56.25,-142.5,-142.5,-172.5,-150,-101.25,-106.25
42,-108.75,-18.75,-48.75,-135,-131.25,-165,-142.5,-90,-93.33333333333333
43,-116.25,-30,-52.5,-138.75,-138.75,-168.75,-146.25,-97.5,-98.75
44,-146.25,-45,-56.25,-146.25,-142.5,-172.5,-150,-101.25,-106.66666666666667
45,-120,-15,-45,-135,-131.25,-161.25,-138.75,-90,-92.91666666666667
46,-108.75,-3.75,-41.25,-131.25,-127.5,-153.75,-135,-86.25,-87.5
47,-123.75,-22.5,-45,-135,-135,-161.25,-142.5,-97.5,-95.83333333333333
48,-101.25,-7.5,-30,-120,-127.5,-161.25,-142.5,-97.5,-87.5
49,-71.25,11.25,-3.75,-90,-108.75,-157.5,-142.5,-97.5,-73.33333333333333
50,-97.5,-26.25,30,-56.25,-105,-172.5,-165,-120,-79.16666666666667
51,-127.5,-67.5,75,-11.25,-101.25,-187.5,-191.25,-153.75,-85.0
52,-93.75,-78.75,120,26.25,-105,-217.5,-228.75,-187.5,-85.0
53,-60,-75,165,60,-112.5,-243.75,-258.75,-217.5,-82.5
54,-71.25,-78.75,206.25,101.25,-97.5,-243.75,-266.25,-221.25,-74.58333333333333
55,-82.5,-78.75,236.25,153.75,-63.75,-228.75,-255,-213.75,-59.166666666666664
56,-56.25,-33.75,270,221.25,-15,-187.5,-217.5,-187.5,-22.916666666666668
57,-7.5,41.25,311.25,296.25,56.25,-127.5,-165,-138.75,29.583333333333332
58,33.75,97.5,337.5,363.75,123.75,-67.5,-105,-86.25,77.5
59,71.25,150,345,412.5,180,-3.75,-45,-26.25,120.41666666666667
60,116.25,210,345,453.75,232.5,60,18.75,37.5,163.75
61,206.25,300,345,513.75,311.25,146.25,108.75,123.75,228.33333333333334
62,303.75,408.75,322.5,566.25,405,258.75,228.75,236.25,303.3333333333333
63,352.5,510,281.25,588.75,487.5,371.25,348.75,352.5,365.8333333333333
64,405,630,225,585,573.75,498.75,483.75,483.75,431.6666666666667
65,457.5,776.25,176.25,588.75,678.75,652.5,648.75,645,513.75
66,495,948.75,161.25,641.25,813.75,828.75,828.75,810,614.1666666666666
67,551.25,1158.75,123.75,648.75,930,1005,1020,997.5,715.0
68,573.75,1372.5,0,551.25,986.25,1162.5,1218.75,1207.5,785.8333333333334
69,570,1526.25,-142.5,412.5,1016.25,1297.5,1395,1395,830.0
70,615,1597.5,-285,232.5,1012.5,1395,1522.5,1522.5,845.8333333333334
71,626.25,1631.25,-412.5,48.75,1001.25,1481.25,1631.25,1620,847.5
72,551.25,1620,-450,-3.75,1057.5,1578.75,1721.25,1680,861.6666666666666
73,472.5,1563.75,-416.25,26.25,1143.75,1661.25,1770,1687.5,878.75
74,412.5,1507.5,-416.25,3.75,1185,1710,1788.75,1668.75,873.3333333333334
75,356.25,1451.25,-450,-75,1166.25,1691.25,1747.5,1612.5,833.3333333333334
76,266.25,1308.75,-487.5,-183.75,1057.5,1548.75,1593.75,1458.75,729.1666666666666
77,150,1098.75,-465,-262.5,885,1301.25,1335,1218.75,584.5833333333334
78,22.5,896.25,-427.5,-345,660,1005,1042.5,967.5,424.5833333333333
79,-90,693.75,-453.75,-510,341.25,641.25,720,720,229.16666666666666
80,-187.5,513.75,-480,-690,7.5,285,412.5,483.75,38.333333333333336
81,-251.25,382.5,-472.5,-791.25,-217.5,33.75,183.75,296.25,-92.91666666666667
82,-285,277.5,-435,-772.5,-285,-82.5,45,153.75,-153.75
83,-303.75,176.25,-408.75,-708.75,-273.75,-123.75,-33.75,56.25,-180.0
84,-273.75,138.75,-393.75,-641.25,-243.75,-123.75,-60,11.25,-176.25
85,-240,142.5,-371.25,-558.75,-191.25,-90,-41.25,15,-148.33333333333334
86,-228.75,123.75,-348.75,-491.25,-161.25,-75,-26.25,26.25,-131.25
87,-221.25,86.25,-330,-453.75,-172.5,-90,-41.25,11.25,-134.58333333333334
88,-206.25,56.25,-300,-408.75,-176.25,-105,-52.5,-3.75,-132.91666666666666
89,-161.25,67.5,-258.75,-345,-142.5,-86.25,-41.25,3.75,-107.08333333333333
90,-97.5,120,-213.75,-270,-93.75,-52.5,-15,30,-65.83333333333333
91,-60,157.5,-176.25,-198.75,-41.25,-15,15,52.5,-29.583333333333332
92,-52.5,153.75,-138.75,-138.75,-3.75,7.5,26.25,60,-9.583333333333334
93,-56.25,138.75,-108.75,-101.25,11.25,7.5,22.5,48.75,-4.166666666666667
94,-60,138.75,-71.25,-67.5,30,18.75,26.25,52.5,7.5
95,-60,138.75,-45,-45,37.5,18.75,26.25,48.75,13.333333333333334
96,-37.5,131.25,-33.75,-37.5,33.75,7.5,11.25,37.5,12.5
97,-11.25,142.5,-15,-15,41.25,11.25,15,37.5,22.916666666666668
98,-11.25,153.75,3.75,0,48.75,15,15,41.25,29.583333333333332
99,-11.25,142.5,0,-3.75,37.5,0,3.75,30,22.083333333333332
100,-15,116.25,-11.25,-18.75,15,-18.75,-18.75,11.25,6.666666666666667
101,-26.25,97.5,-15,-26.25,3.75,-30,-30,3.75,-2.5
102,-56.25,75,-15,-30,-3.75,-41.25,-41.25,-7.5,-13.333333333333334
103,-86.25,48.75,-26.25,-41.25,-22.5,-60,-56.25,-26.25,-30.0
104,-112.5,11.25,-33.75,-52.5,-33.75,-71.25,-71.25,-41.25,-45.0
105,-105,11.25,-30,-48.75,-33.75,-71.25,-71.25,-41.25,-43.333333333333336
106,-78.75,41.25,-18.75,-37.5,-26.25,-63.75,-60,-30,-30.416666666666668
107,-90,41.25,-11.25,-33.75,-22.5,-63.75,-60,-30,-30.0
108,-75,52.5,-7.5,-26.25,-22.5,-63.75,-60,-30,-25.833333333333332
109,-67.5,63.75,0,-18.75,-15,-60,-56.25,-22.5,-19.583333333333332
110,-71.25,52.5,-3.75,-18.75,-18.75,-63.75,-63.75,-26.25,-23.75
111,-56.25,41.25,-15,-26.25,-30,-71.25,-67.5,-33.75,-28.75
112,-30,52.5,-11.25,-26.25,-30,-71.25,-71.25,-33.75,-24.583333333333332
113,-33.75,56.25,-11.25,-26.25,-26.25,-67.5,-67.5,-30,-22.916666666666668
114,-45,48.75,-18.75,-30,-30,-71.25,-71.25,-30,-27.5
115,-41.25,52.5,-18.75,-30,-30,-67.5,-67.5,-30,-25.833333333333332
116,-45,56.25,-15,-30,-30,-67.5,-67.5,-30,-25.416666666666668
117,-52.5,52.5,-15,-30,-30,-67.5,-67.5,-30,-26.666666666666668
118,-52.5,56.25,-7.5,-22.5,-22.5,-60,-60,-26.25,-21.666666666666668
119,-52.5,60,-3.75,-18.75,-18.75,-52.5,-52.5,-18.75,-17.5
120,-37.5,63.75,-7.5,-18.75,-22.5,-56.25,-56.25,-18.75,-17.083333333333332
121,-26.25,75,0,-7.5,-11.25,-48.75,-48.75,-11.25,-8.75
122,-18.75,82.5,0,-3.75,-7.5,-48.75,-45,-7.5,-5.416666666666667
123,-7.5,82.5,-7.5,-7.5,-15,-52.5,-52.5,-15,-8.333333333333334
124,-3.75,82.5,-7.5,-11.25,-15,-56.25,-52.5,-15,-8.75
125,-11.25,78.75,-7.5,-7.5,-11.25,-52.5,-52.5,-11.25,-8.333333333333334
126,-22.5,71.25,-11.25,-11.25,-15,-52.5,-52.5,-15,-12.083333333333334
127,-18.75,75,-11.25,-7.5,-7.5,-48.75,-48.75,-11.25,-8.75
128,-18.75,82.5,-7.5,-3.75,-3.75,-41.25,-41.25,-3.75,-4.166666666666667
129,-45,52.5,-15,-11.25,-11.25,-48.75,-48.75,-11.25,-15.416666666666666
130,-45,48.75,-18.75,-11.25,-11.25,-48.75,-52.5,-15,-17.083333333333332
131,-15,82.5,-3.75,3.75,3.75,-33.75,-37.5,-3.75,-0.4166666666666667
132,-15,90,0,7.5,7.5,-33.75,-33.75,0,2.5
133,-33.75,75,-7.5,11.25,7.5,-33.75,-37.5,-3.75,-2.5
134,-30,75,-7.5,15,11.25,-33.75,-33.75,0,-0.4166666666666667
135,-3.75,86.25,-15,11.25,11.25,-33.75,-33.75,0,2.5
136,7.5,86.25,-18.75,11.25,11.25,-30,-30,3.75,4.583333333333333
137,-11.25,82.5,-15,15,15,-26.25,-30,3.75,3.75
138,-7.5,90,-11.25,18.75,18.75,-22.5,-26.25,7.5,7.5
139,30,116.25,-3.75,30,26.25,-11.25,-15,18.75,21.25
140,33.75,120,-7.5,26.25,26.25,-11.25,-15,18.75,21.25
141,11.25,101.25,-7.5,22.5,26.25,-11.25,-15,15,15.833333333333334
142,0,101.25,-3.75,30,33.75,-3.75,-11.25,18.75,18.333333333333332
143,7.5,105,-3.75,33.75,33.75,0,-7.5,18.75,20.833333333333332
144,3.75,105,-7.5,37.5,37.5,0,-3.75,22.5,21.666666666666668
145,11.25,112.5,-3.75,45,45,3.75,3.75,30,27.5
146,18.75,108.75,-15,41.25,41.25,-3.75,-3.75,26.25,23.75
147,26.25,105,-18.75,33.75,33.75,-7.5,-7.5,22.5,20.833333333333332
148,30,105,-18.75,37.5,37.5,0,-3.75,30,24.166666666666668
149,33.75,108.75,-15,45,45,7.5,3.75,33.75,29.166666666666668
150,33.75,116.25,-15,52.5,52.5,11.25,11.25,41.25,33.75
151,37.5,116.25,-15,52.5,52.5,11.25,11.25,41.25,34.166666666666664
152,37.5,108.75,-18.75,45,48.75,11.25,11.25,37.5,31.25
153,33.75,108.75,-18.75,45,48.75,11.25,11.25,37.5,30.833333333333332
154,33.75,116.25,-22.5,48.75,52.5,15,15,41.25,33.333333333333336
155,45,131.25,-11.25,60,63.75,22.5,22.5,48.75,42.5
156,52.5,138.75,-7.5,67.5,67.5,30,26.25,48.75,47.083333333333336
157,41.25,138.75,-7.5,75,75,33.75,33.75,60,50.0
158,37.5,135,-15,71.25,71.25,30,33.75,60,47.083333333333336
159,56.25,138.75,-22.5,71.25,71.25,30,30,60,48.333333333333336
160,67.5,138.75,-26.25,67.5,71.25,33.75,33.75,60,49.583333333333336
161,60,138.75,-26.25,71.25,75,37.5,37.5,67.5,51.25
162,63.75,142.5,-30,71.25,71.25,37.5,37.5,67.5,51.25
163,82.5,150,-26.25,71.25,75,41.25,41.25,67.5,55.833333333333336
164,78.75,150,-26.25,71.25,71.25,41.25,37.5,67.5,54.583333333333336
165,63.75,142.5,-30,71.25,75,41.25,41.25,67.5,52.5
166,63.75,135,-33.75,71.25,75,41.25,41.25,67.5,51.25
167,63.75,135,-37.5,67.5,75,41.25,41.25,67.5,50.416666666666664
168,67.5,165,-22.5,82.5,90,52.5,52.5,82.5,63.333333333333336
169,108.75,221.25,-3.75,108.75,112.5,75,75,105,89.16666666666667
170,138.75,225,-7.5,108.75,112.5,75,75,108.75,92.91666666666667
171,131.25,195,-15,101.25,101.25,67.5,71.25,101.25,83.75
172,112.5,183.75,-22.5,97.5,101.25,67.5,67.5,101.25,78.75
173,108.75,180,-22.5,93.75,97.5,67.5,67.5,101.25,77.08333333333333
174,108.75,176.25,-30,90,90,60,63.75,93.75,72.5
175,108.75,172.5,-30,90,90,60,63.75,97.5,72.5
176,135,191.25,-26.25,93.75,93.75,67.5,71.25,105,81.25
177,142.5,206.25,-22.5,93.75,97.5,71.25,78.75,108.75,86.25
178,138.75,213.75,-22.5,97.5,97.5,75,82.5,112.5,88.33333333333333
179,157.5,221.25,-22.5,101.25,101.25,78.75,86.25,116.25,93.33333333333333
180,135,198.75,-30,97.5,93.75,71.25,78.75,112.5,84.16666666666667
181,97.5,180,-33.75,97.5,93.75,67.5,75,108.75,76.25
182,127.5,198.75,-33.75,101.25,93.75,67.5,78.75,116.25,83.33333333333333
183,150,210,-33.75,101.25,97.5,71.25,82.5,123.75,89.16666666666667
184,150,217.5,-30,101.25,101.25,78.75,86.25,127.5,92.5
185,135,213.75,-26.25,105,101.25,78.75,90,131.25,92.08333333333333
186,138.75,206.25,-33.75,97.5,93.75,71.25,86.25,127.5,87.5
187,161.25,210,-41.25,90,86.25,67.5,82.5,123.75,86.66666666666667
188,180,225,-37.5,90,86.25,75,86.25,131.25,92.91666666666667
189,183.75,232.5,-33.75,97.5,90,78.75,97.5,135,97.91666666666667
190,153.75,217.5,-30,97.5,90,78.75,93.75,135,92.91666666666667
191,138.75,206.25,-33.75,86.25,82.5,67.5,86.25,123.75,84.16666666666667
192,157.5,221.25,-30,90,82.5,67.5,86.25,127.5,89.16666666666667
193,168.75,240,-26.25,101.25,90,75,93.75,135,97.5
194,172.5,240,-30,97.5,86.25,71.25,90,138.75,96.25
195,168.75,225,-33.75,90,75,63.75,82.5,131.25,89.16666666666667
196,172.5,228.75,-37.5,86.25,71.25,60,82.5,131.25,88.33333333333333
197,180,236.25,-33.75,90,75,63.75,86.25,135,92.5
198,176.25,228.75,-33.75,86.25,71.25,60,82.5,131.25,89.16666666666667
199,172.5,225,-37.5,78.75,63.75,48.75,75,123.75,83.33333333333333
200,172.5,232.5,-30,82.5,63.75,52.5,75,123.75,85.83333333333333
201,157.5,232.5,-18.75,86.25,67.5,52.5,78.75,123.75,86.66666666666667
202,142.5,217.5,-15,86.25,67.5,52.5,75,120,82.91666666666667
203,123.75,198.75,-22.5,78.75,56.25,41.25,63.75,112.5,72.5
204,120,202.5,-18.75,82.5,56.25,41.25,63.75,112.5,73.33333333333333
205,142.5,228.75,-7.5,90,63.75,45,67.5,116.25,82.91666666666667
206,161.25,236.25,-11.25,86.25,56.25,33.75,56.25,108.75,80.83333333333333
207,157.5,225,-11.25,82.5,48.75,26.25,52.5,105,76.25
208,135,206.25,-7.5,78.75,45,22.5,48.75,97.5,69.58333333333333
209,131.25,202.5,-3.75,78.75,45,22.5,45,97.5,68.75
210,127.5,195,-7.5,75,37.5,11.25,33.75,86.25,62.083333333333336
211,116.25,180,-7.5,67.5,30,3.75,26.25,75,54.583333333333336
212,108.75,176.25,0,67.5,26.25,3.75,22.5,71.25,52.916666666666664
213,86.25,172.5,11.25,75,33.75,7.5,26.25,75,54.166666666666664
214,63.75,161.25,18.75,75,30,7.5,22.5,71.25,50.0
215,75,157.5,15,67.5,22.5,-7.5,15,60,45.0
216,75,161.25,18.75,67.5,22.5,-11.25,11.25,52.5,44.166666666666664
217,56.25,165,18.75,67.5,18.75,-15,3.75,48.75,40.416666666666664
218,60,157.5,11.25,56.25,7.5,-30,-11.25,37.5,32.083333333333336
219,71.25,150,7.5,48.75,0,-37.5,-18.75,30,27.916666666666668
220,63.75,150,18.75,56.25,3.75,-30,-15,33.75,31.25
221,63.75,153.75,26.25,56.25,7.5,-30,-11.25,33.75,33.333333333333336
222,41.25,135,26.25,48.75,0,-33.75,-15,30,25.833333333333332
223,3.75,105,22.5,33.75,-15,-45,-30,15,10.0
224,3.75,97.5,15,22.5,-18.75,-52.5,-41.25,3.75,3.3333333333333335
225,15,105,15,26.25,-15,-52.5,-41.25,3.75,6.25
226,3.75,108.75,22.5,30,-15,-48.75,-37.5,3.75,7.5
227,3.75,112.5,22.5,22.5,-18.75,-56.25,-45,-3.75,4.166666666666667
228,15,112.5,18.75,18.75,-22.5,-60,-48.75,-11.25,2.5
229,18.75,120,30,26.25,-18.75,-60,-48.75,-7.5,6.666666666666667
230,3.75,116.25,33.75,26.25,-18.75,-60,-48.75,-7.5,5.0
231,-22.5,90,18.75,7.5,-30,-71.25,-60,-18.75,-9.583333333333334
232,-52.5,48.75,7.5,-7.5,-45,-82.5,-75,-30,-26.25
233,-75,26.25,3.75,-15,-52.5,-90,-78.75,-37.5,-35.416666666666664
234,-75,37.5,11.25,-15,-48.75,-86.25,-75,-33.75,-31.666666666666668
235,-71.25,45,18.75,-11.25,-45,-82.5,-71.25,-30,-27.5
236,-60,48.75,18.75,-18.75,-48.75,-86.25,-75,-33.75,-28.333333333333332
237,-41.25,63.75,22.5,-22.5,-52.5,-86.25,-75,-33.75,-25.0
238,-33.75,78.75,26.25,-18.75,-48.75,-82.5,-71.25,-30,-20.0
239,-56.25,63.75,22.5,-22.5,-56.25,-86.25,-75,-33.75,-27.083333333333332
240,-60,52.5,15,-30,-60,-97.5,-82.5,-45,-34.166666666666664
241,-45,71.25,18.75,-26.25,-56.25,-93.75,-82.5,-37.5,-27.916666666666668
242,-52.5,63.75,15,-30,-60,-101.25,-86.25,-41.25,-32.5
243,-67.5,41.25,3.75,-45,-75,-112.5,-97.5,-56.25,-45.416666666666664
244,-67.5,41.25,3.75,-48.75,-75,-112.5,-97.5,-52.5,-45.416666666666664
245,-78.75,41.25,7.5,-48.75,-75,-108.75,-97.5,-52.5,-45.833333333333336
246,-93.75,22.5,0,-60,-86.25,-120,-108.75,-63.75,-56.666666666666664
247,-90,18.75,-3.75,-63.75,-90,-120,-108.75,-63.75,-57.916666666666664
248,-97.5,22.5,0,-63.75,-86.25,-116.25,-105,-60,-56.25
249,-108.75,26.25,7.5,-60,-82.5,-108.75,-97.5,-56.25,-53.333333333333336
250,-82.5,30,0,-71.25,-90,-116.25,-105,-63.75,-55.416666666666664
251,-48.75,41.25,-3.75,-75,-93.75,-120,-108.75,-67.5,-52.916666666666664
252,-41.25,56.25,3.75,-67.5,-86.25,-116.25,-105,-63.75,-46.666666666666664
253,-41.25,60,7.5,-60,-86.25,-116.25,-105,-63.75,-45.0
254,-48.75,56.25,3.75,-60,-86.25,-116.25,-105,-63.75,-46.666666666666664
255,-71.25,52.5,7.5,-60,-82.5,-112.5,-101.25,-56.25,-47.083333333333336
256,-82.5,48.75,7.5,-60,-82.5,-108.75,-101.25,-56.25,-48.333333333333336
257,-93.75,33.75,0,-67.5,-90,-120,-108.75,-63.75,-56.666666666666664
258,-86.25,33.75,0,-71.25,-93.75,-120,-108.75,-60,-56.25
259,-82.5,33.75,0,-71.25,-93.75,-116.25,-105,-56.25,-54.583333333333336
260,-105,11.25,-7.5,-78.75,-101.25,-123.75,-112.5,-67.5,-65.0
261,-123.75,-18.75,-22.5,-97.5,-116.25,-142.5,-131.25,-86.25,-82.08333333333333
262,-116.25,-7.5,-15,-90,-108.75,-135,-123.75,-82.5,-75.41666666666667
263,-108.75,11.25,-7.5,-78.75,-101.25,-127.5,-116.25,-75,-67.08333333333333
264,-116.25,18.75,0,-71.25,-93.75,-123.75,-112.5,-67.5,-62.916666666666664
265,-112.5,26.25,3.75,-63.75,-86.25,-116.25,-105,-63.75,-57.5
266,-71.25,41.25,0,-63.75,-86.25,-116.25,-105,-63.75,-51.666666666666664
267,-71.25,37.5,-3.75,-63.75,-90,-116.25,-105,-60,-52.5
268,-93.75,26.25,0,-63.75,-86.25,-112.5,-105,-60,-55.0
269,-101.25,22.5,3.75,-60,-86.25,-112.5,-97.5,-56.25,-54.166666666666664
270,-78.75,22.5,-7.5,-71.25,-93.75,-116.25,-105,-63.75,-57.083333333333336
271,-60,22.5,-15,-78.75,-97.5,-123.75,-112.5,-71.25,-59.583333333333336
272,-78.75,30,-3.75,-67.5,-86.25,-108.75,-101.25,-60,-52.916666666666664
273,-93.75,30,3.75,-63.75,-82.5,-105,-93.75,-56.25,-51.25
274,-90,30,3.75,-60,-78.75,-101.25,-93.75,-56.25,-49.583333333333336
275,-108.75,22.5,3.75,-56.25,-78.75,-105,-93.75,-56.25,-52.5
276,-116.25,22.5,11.25,-52.5,-75,-101.25,-93.75,-52.5,-50.833333333333336
277,-101.25,30,7.5,-52.5,-78.75,-105,-97.5,-56.25,-50.416666666666664
278,-75,45,0,-52.5,-78.75,-105,-97.5,-56.25,-46.666666666666664
279,-75,45,0,-52.5,-78.75,-105,-97.5,-56.25,-46.666666666666664
280,-82.5,41.25,0,-52.5,-78.75,-105,-97.5,-56.25,-47.916666666666664
281,-90,37.5,0,-52.5,-75,-105,-97.5,-56.25,-48.75
282,-82.5,41.25,0,-52.5,-75,-101.25,-93.75,-52.5,-46.25
283,-86.25,37.5,0,-52.5,-75,-97.5,-93.75,-52.5,-46.666666666666664
284,-90,30,0,-56.25,-75,-101.25,-93.75,-56.25,-49.166666666666664
285,-93.75,26.25,3.75,-56.25,-75,-101.25,-93.75,-56.25,-49.583333333333336
286,-101.25,22.5,-3.75,-60,-82.5,-101.25,-97.5,-56.25,-53.333333333333336
287,-90,30,-3.75,-56.25,-78.75,-101.25,-97.5,-56.25,-50.416666666666664
288,-78.75,48.75,3.75,-48.75,-67.5,-93.75,-90,-48.75,-41.666666666666664
289,-82.5,63.75,11.25,-37.5,-60,-86.25,-86.25,-41.25,-35.416666666666664
290,-71.25,60,7.5,-37.5,-60,-90,-86.25,-45,-35.833333333333336
291,-60,52.5,-3.75,-48.75,-71.25,-97.5,-93.75,-52.5,-41.666666666666664
292,-78.75,37.5,-11.25,-56.25,-75,-105,-97.5,-56.25,-49.166666666666664
293,-90,30,-11.25,-56.25,-75,-101.25,-97.5,-52.5,-50.416666666666664
294,-90,33.75,-7.5,-52.5,-71.25,-97.5,-90,-48.75,-47.083333333333336
295,-97.5,30,-7.5,-52.5,-71.25,-97.5,-90,-48.75,-48.333333333333336
296,-82.5,33.75,-3.75,-56.25,-75,-97.5,-93.75,-52.5,-47.5
297,-78.75,45,7.5,-48.75,-63.75,-86.25,-82.5,-45,-39.166666666666664
298,-75,52.5,7.5,-41.25,-60,-86.25,-78.75,-41.25,-35.833333333333336
299,-86.25,41.25,3.75,-45,-63.75,-90,-86.25,-45,-41.25
300,-93.75,41.25,0,-48.75,-67.5,-90,-86.25,-48.75,-43.75
301,-78.75,52.5,0,-41.25,-63.75,-90,-86.25,-45,-39.166666666666664
302,-78.75,41.25,-11.25,-48.75,-71.25,-101.25,-97.5,-52.5,-46.666666666666664
303,-93.75,33.75,-11.25,-52.5,-71.25,-101.25,-97.5,-56.25,-50.0
304,-78.75,45,-3.75,-48.75,-67.5,-93.75,-86.25,-45,-42.083333333333336
305,-56.25,60,-3.75,-45,-63.75,-90,-82.5,-41.25,-35.833333333333336
306,-67.5,52.5,-7.5,-45,-63.75,-90,-82.5,-37.5,-37.916666666666664
307,-97.5,30,-7.5,-52.5,-71.25,-93.75,-90,-45,-47.5
308,-108.75,18.75,-11.25,-60,-71.25,-97.5,-90,-52.5,-52.5
309,-97.5,18.75,-15,-60,-75,-97.5,-93.75,-52.5,-52.5
310,-71.25,41.25,-7.5,-60,-71.25,-93.75,-93.75,-48.75,-45.0
311,-63.75,56.25,-3.75,-52.5,-67.5,-90,-90,-45,-39.583333333333336
312,-60,67.5,0,-48.75,-63.75,-86.25,-82.5,-41.25,-35.0
313,-48.75,78.75,0,-37.5,-56.25,-82.5,-78.75,-33.75,-28.75
314,-60,67.5,0,-41.25,-60,-86.25,-78.75,-37.5,-32.916666666666664
315,-86.25,30,-15,-56.25,-75,-97.5,-93.75,-48.75,-49.166666666666664
316,-93.75,11.25,-26.25,-71.25,-82.5,-108.75,-101.25,-56.25,-58.75
317,-90,18.75,-22.5,-67.5,-82.5,-105,-97.5,-52.5,-55.416666666666664
318,-90,30,-11.25,-56.25,-71.25,-93.75,-86.25,-45,-47.083333333333336
319,-97.5,22.5,-15,-63.75,-75,-97.5,-90,-48.75,-51.666666666666664
320,-82.5,26.25,-15,-67.5,-78.75,-97.5,-90,-48.75,-50.416666666666664
321,-60,48.75,-7.5,-60,-71.25,-90,-82.5,-41.25,-40.416666666666664
322,-52.5,67.5,-3.75,-52.5,-63.75,-82.5,-75,-33.75,-32.916666666666664
323,-63.75,56.25,-7.5,-56.25,-67.5,-86.25,-78.75,-37.5,-37.916666666666664
324,-82.5,37.5,-11.25,-60,-71.25,-90,-82.5,-41.25,-44.583333333333336
325,-78.75,45,-11.25,-52.5,-67.5,-90,-82.5,-37.5,-41.666666666666664
326,-71.25,48.75,-11.25,-56.25,-71.25,-93.75,-82.5,-41.25,-42.083333333333336
327,-78.75,33.75,-18.75,-67.5,-82.5,-101.25,-93.75,-52.5,-51.25
328,-75,33.75,-26.25,-75,-86.25,-105,-97.5,-52.5,-53.75
329,-71.25,37.5,-22.5,-71.25,-82.5,-101.25,-93.75,-45,-50.0
330,-78.75,33.75,-22.5,-71.25,-82.5,-101.25,-90,-45,-50.833333333333336
331,-78.75,26.25,-26.25,-82.5,-90,-108.75,-101.25,-56.25,-57.5
332,-78.75,11.25,-30,-90,-97.5,-116.25,-108.75,-67.5,-64.16666666666667
333,-82.5,26.25,-22.5,-82.5,-93.75,-105,-101.25,-60,-57.916666666666664
334,-93.75,45,-18.75,-75,-86.25,-101.25,-93.75,-48.75,-52.5
335,-90,41.25,-18.75,-78.75,-86.25,-101.25,-93.75,-48.75,-52.916666666666664
336,-75,41.25,-15,-71.25,-82.5,-101.25,-90,-48.75,-49.166666666666664
337,-75,48.75,-15,-67.5,-82.5,-105,-93.75,-48.75,-48.75
338,-90,37.5,-18.75,-75,-90,-108.75,-97.5,-52.5,-55.0
339,-93.75,26.25,-22.5,-78.75,-93.75,-108.75,-97.5,-52.5,-57.916666666666664
340,-78.75,33.75,-22.5,-78.75,-93.75,-108.75,-97.5,-52.5,-55.416666666666664
341,-60,48.75,-18.75,-75,-86.25,-105,-93.75,-48.75,-48.75
342,-56.25,52.5,-18.75,-78.75,-90,-105,-93.75,-48.75,-48.75
343,-93.75,11.25,-33.75,-97.5,-108.75,-123.75,-112.5,-67.5,-69.58333333333333
344,-120,-26.25,-45,-112.5,-123.75,-135,-123.75,-78.75,-85.0
345,-105,-15,-45,-112.5,-123.75,-135,-123.75,-75,-81.66666666666667
346,-101.25,3.75,-37.5,-105,-116.25,-127.5,-116.25,-67.5,-74.16666666666667
347,-97.5,15,-30,-97.5,-108.75,-123.75,-108.75,-63.75,-68.33333333333333
348,-93.75,30,-22.5,-90,-101.25,-116.25,-105,-56.25,-61.666666666666664
349,-90,37.5,-22.5,-82.5,-101.25,-116.25,-105,-56.25,-59.583333333333336
350,-90,30,-30,-90,-105,-123.75,-112.5,-63.75,-65.0
351,-86.25,33.75,-30,-93.75,-108.75,-123.75,-108.75,-63.75,-64.58333333333333
352,-86.25,33.75,-30,-93.75,-108.75,-120,-105,-56.25,-62.916666666666664
353,-75,30,-30,-93.75,-108.75,-120,-105,-56.25,-62.083333333333336
354,-60,30,-33.75,-101.25,-116.25,-123.75,-112.5,-67.5,-65.0
355,-67.5,11.25,-41.25,-108.75,-120,-131.25,-116.25,-71.25,-71.66666666666667
356,-86.25,-7.5,-48.75,-120,-131.25,-138.75,-123.75,-78.75,-81.66666666666667
357,-93.75,0,-37.5,-112.5,-123.75,-131.25,-116.25,-75,-76.66666666666667
358,-105,22.5,-18.75,-93.75,-108.75,-116.25,-97.5,-60,-64.16666666666667
359,-101.25,30,-18.75,-93.75,-105,-112.5,-97.5,-56.25,-61.666666666666664
360,-78.75,33.75,-22.5,-90,-105,-116.25,-101.25,-56.25,-59.583333333333336
361,-82.5,37.5,-18.75,-86.25,-105,-112.5,-97.5,-48.75,-57.083333333333336
362,-93.75,26.25,-30,-93.75,-112.5,-120,-105,-56.25,-65.0
363,-90,18.75,-37.5,-105,-120,-131.25,-116.25,-67.5,-72.08333333333333
364,-82.5,26.25,-33.75,-101.25,-116.25,-127.5,-112.5,-63.75,-67.91666666666667
365,-93.75,22.5,-33.75,-101.25,-116.25,-127.5,-108.75,-63.75,-69.16666666666667
366,-105,7.5,-33.75,-101.25,-120,-127.5,-112.5,-63.75,-72.91666666666667
367,-108.75,-3.75,-37.5,-108.75,-120,-127.5,-112.5,-63.75,-75.83333333333333
368,-105,3.75,-33.75,-108.75,-120,-123.75,-108.75,-63.75,-73.33333333333333
369,-97.5,7.5,-30,-108.75,-120,-123.75,-108.75,-60,-71.25
370,-97.5,11.25,-30,-105,-116.25,-123.75,-108.75,-60,-70.0
371,-101.25,18.75,-22.5,-97.5,-112.5,-116.25,-101.25,-52.5,-65.0
372,-108.75,18.75,-18.75,-90,-105,-112.5,-97.5,-48.75,-62.5
373,-101.25,15,-26.25,-97.5,-116.25,-123.75,-108.75,-60,-68.75
374,-90,15,-33.75,-101.25,-123.75,-131.25,-116.25,-67.5,-72.08333333333333
375,-101.25,7.5,-37.5,-105,-123.75,-131.25,-112.5,-63.75,-74.16666666666667
376,-108.75,7.5,-33.75,-101.25,-116.25,-123.75,-108.75,-60,-71.66666666666667
377,-97.5,18.75,-30,-97.5,-112.5,-120,-105,-56.25,-66.66666666666667
378,-90,30,-26.25,-93.75,-112.5,-120,-101.25,-56.25,-63.333333333333336
379,-97.5,26.25,-22.5,-90,-108.75,-116.25,-101.25,-52.5,-62.5
380,-90,26.25,-22.5,-93.75,-112.5,-116.25,-105,-56.25,-63.333333333333336
381,-82.5,41.25,-7.5,-82.5,-101.25,-105,-93.75,-48.75,-53.333333333333336
382,-86.25,60,7.5,-67.5,-90,-93.75,-86.25,-41.25,-44.166666666666664
383,-93.75,63.75,11.25,-63.75,-86.25,-93.75,-82.5,-37.5,-42.5
384,-97.5,60,11.25,-63.75,-90,-97.5,-86.25,-37.5,-44.583333333333336
385,-86.25,71.25,15,-60,-86.25,-101.25,-86.25,-37.5,-41.25
386,-71.25,82.5,22.5,-52.5,-82.5,-93.75,-86.25,-37.5,-35.416666666666664
387,-63.75,78.75,18.75,-56.25,-82.5,-97.5,-90,-41.25,-37.083333333333336
388,-67.5,78.75,26.25,-48.75,-75,-90,-82.5,-33.75,-32.5
389,-82.5,60,22.5,-52.5,-78.75,-93.75,-82.5,-37.5,-38.333333333333336
390,-86.25,45,15,-56.25,-86.25,-101.25,-90,-45,-45.0
391,-78.75,48.75,22.5,-56.25,-78.75,-93.75,-82.5,-41.25,-40.0
392,-71.25,52.5,30,-52.5,-75,-90,-78.75,-33.75,-35.416666666666664
393,-82.5,48.75,37.5,-48.75,-75,-86.25,-75,-33.75,-35.0
394,-78.75,71.25,45,-37.5,-67.5,-78.75,-71.25,-30,-27.5
395,-63.75,101.25,52.5,-26.25,-56.25,-71.25,-63.75,-18.75,-16.25
396,-63.75,116.25,56.25,-22.5,-48.75,-63.75,-56.25,-11.25,-10.416666666666666
397,-67.5,123.75,52.5,-18.75,-45,-63.75,-48.75,-3.75,-7.916666666666667
398,-60,112.5,30,-33.75,-60,-75,-60,-11.25,-17.5
399,-52.5,105,11.25,-45,-63.75,-78.75,-60,-15,-22.083333333333332
400,-48.75,108.75,0,-48.75,-63.75,-75,-60,-15,-22.5
401,-22.5,120,-11.25,-48.75,-63.75,-71.25,-56.25,-7.5,-17.916666666666668
402,-18.75,108.75,-26.25,-56.25,-67.5,-71.25,-56.25,-7.5,-21.666666666666668
403,-45,82.5,-41.25,-71.25,-78.75,-82.5,-63.75,-15,-35.0
404,-52.5,67.5,-45,-75,-82.5,-86.25,-71.25,-22.5,-40.833333333333336
405,-33.75,71.25,-45,-75,-82.5,-82.5,-67.5,-22.5,-37.5
406,-41.25,75,-41.25,-71.25,-78.75,-78.75,-60,-15,-34.583333333333336
407,-60,63.75,-52.5,-86.25,-90,-86.25,-71.25,-18.75,-44.583333333333336
408,-48.75,63.75,-63.75,-93.75,-97.5,-93.75,-78.75,-22.5,-48.333333333333336
409,-33.75,82.5,-56.25,-82.5,-93.75,-90,-71.25,-18.75,-40.416666666666664
410,-45,75,-56.25,-86.25,-97.5,-93.75,-75,-22.5,-44.583333333333336
411,-48.75,67.5,-56.25,-97.5,-101.25,-101.25,-82.5,-26.25,-49.583333333333336
412,-37.5,75,-56.25,-101.25,-108.75,-101.25,-82.5,-22.5,-48.333333333333336
413,-41.25,67.5,-56.25,-101.25,-108.75,-105,-82.5,-26.25,-50.416666666666664
414,-60,30,-67.5,-112.5,-123.75,-120,-101.25,-45,-66.66666666666667
415,-75,3.75,-71.25,-120,-127.5,-127.5,-108.75,-56.25,-75.83333333333333
416,-82.5,3.75,-60,-116.25,-123.75,-120,-101.25,-52.5,-72.5
417,-86.25,18.75,-52.5,-108.75,-116.25,-108.75,-90,-41.25,-65.0
418,-75,37.5,-48.75,-101.25,-108.75,-101.25,-86.25,-33.75,-57.5
419,-78.75,37.5,-41.25,-97.5,-108.75,-108.75,-93.75,-41.25,-59.166666666666664
420,-86.25,33.75,-41.25,-97.5,-112.5,-112.5,-97.5,-45,-62.083333333333336
421,-63.75,52.5,-41.25,-97.5,-108.75,-112.5,-93.75,-41.25,-56.25
422,-63.75,48.75,-45,-101.25,-116.25,-120,-101.25,-45,-60.416666666666664
423,-67.5,37.5,-48.75,-108.75,-120,-123.75,-105,-52.5,-65.41666666666667
424,-63.75,33.75,-52.5,-116.25,-131.25,-131.25,-112.5,-60,-70.41666666666667
425,-97.5,0,-63.75,-135,-146.25,-146.25,-127.5,-75,-87.91666666666667
426,-123.75,-18.75,-63.75,-135,-146.25,-150,-131.25,-78.75,-94.16666666666667
427,-127.5,-22.5,-63.75,-135,-142.5,-146.25,-127.5,-75,-93.33333333333333
428,-135,-30,-63.75,-138.75,-150,-150,-131.25,-78.75,-97.5
429,-127.5,-11.25,-48.75,-131.25,-142.5,-142.5,-123.75,-71.25,-88.75
430,-112.5,7.5,-41.25,-123.75,-135,-138.75,-120,-67.5,-81.25
431,-112.5,0,-48.75,-127.5,-138.75,-142.5,-123.75,-71.25,-85.0
432,-101.25,11.25,-45,-123.75,-135,-138.75,-120,-67.5,-80.0
433,-90,22.5,-41.25,-116.25,-131.25,-135,-112.5,-60,-73.75
434,-97.5,3.75,-52.5,-127.5,-142.5,-146.25,-127.5,-71.25,-84.58333333333333
435,-116.25,-11.25,-60,-135,-150,-153.75,-135,-78.75,-93.33333333333333
436,-131.25,-18.75,-63.75,-138.75,-153.75,-153.75,-135,-78.75,-97.08333333333333
437,-120,-11.25,-60,-135,-150,-153.75,-131.25,-78.75,-93.33333333333333
438,-101.25,3.75,-52.5,-131.25,-142.5,-146.25,-123.75,-71.25,-85.0
439,-108.75,-7.5,-56.25,-135,-146.25,-146.25,-127.5,-75,-89.16666666666667
440,-116.25,-15,-60,-138.75,-150,-146.25,-127.5,-75,-92.08333333333333
441,-142.5,-30,-56.25,-138.75,-150,-146.25,-127.5,-75,-96.25
442,-150,-45,-63.75,-142.5,-153.75,-153.75,-135,-82.5,-102.91666666666667
443,-120,-18.75,-56.25,-135,-146.25,-146.25,-131.25,-78.75,-92.5
444,-101.25,18.75,-37.5,-116.25,-131.25,-131.25,-112.5,-63.75,-75.0
445,-86.25,33.75,-37.5,-108.75,-127.5,-131.25,-112.5,-60,-70.0
446,-86.25,15,-52.5,-123.75,-138.75,-142.5,-123.75,-71.25,-80.41666666666667
447,-105,-7.5,-60,-131.25,-146.25,-150,-131.25,-78.75,-90.0
448,-112.5,-3.75,-52.5,-127.5,-142.5,-142.5,-123.75,-71.25,-86.25
449,-108.75,0,-56.25,-127.5,-142.5,-142.5,-123.75,-71.25,-85.83333333333333
450,-120,-15,-60,-131.25,-146.25,-146.25,-131.25,-75,-91.66666666666667
451,-123.75,-30,-63.75,-138.75,-153.75,-153.75,-138.75,-86.25,-98.75
452,-123.75,-37.5,-56.25,-131.25,-150,-153.75,-138.75,-90,-97.91666666666667
453,-142.5,-56.25,-41.25,-120,-150,-157.5,-150,-105,-102.5
454,-150,-78.75,-11.25,-90,-142.5,-165,-165,-120,-102.5
455,-150,-93.75,33.75,-45,-135,-180,-187.5,-146.25,-100.41666666666667
456,-150,-97.5,90,7.5,-123.75,-195,-210,-172.5,-94.58333333333333
457,-116.25,-86.25,146.25,60,-116.25,-213.75,-232.5,-195,-83.75
458,-71.25,-67.5,187.5,97.5,-108.75,-221.25,-243.75,-206.25,-70.41666666666667
459,-78.75,-75,210,135,-90,-213.75,-243.75,-206.25,-62.5
460,-93.75,-67.5,240,202.5,-41.25,-176.25,-213.75,-183.75,-37.083333333333336
461,-45,7.5,277.5,281.25,26.25,-123.75,-165,-135,13.75
462,15,71.25,303.75,345,90,-63.75,-108.75,-86.25,62.916666666666664
463,52.5,116.25,315,390,146.25,-3.75,-52.5,-30,103.75
464,108.75,183.75,326.25,431.25,202.5,63.75,15,33.75,151.66666666666666
465,198.75,277.5,333.75,491.25,277.5,150,101.25,116.25,216.25
466,277.5,363.75,318.75,547.5,367.5,255,213.75,225,285.4166666666667
467,326.25,457.5,281.25,570,446.25,363.75,330,333.75,345.4166666666667
468,375,577.5,232.5,573.75,525,480,453.75,453.75,407.9166666666667
469,442.5,708.75,161.25,570,611.25,607.5,596.25,592.5,476.6666666666667
470,506.25,866.25,131.25,611.25,735,772.5,765,750,570.8333333333334
471,566.25,1068.75,108.75,648.75,862.5,948.75,952.5,930,676.25
472,618.75,1305,18.75,603.75,948.75,1121.25,1162.5,1151.25,770.0
473,626.25,1477.5,-116.25,498.75,1001.25,1275,1350,1353.75,829.5833333333334
474,663.75,1552.5,-251.25,341.25,1005,1376.25,1481.25,1485,850.4166666666666
475,727.5,1612.5,-382.5,150,986.25,1458.75,1590,1586.25,858.75
476,671.25,1620,-438.75,63.75,1023.75,1552.5,1691.25,1668.75,872.5
477,551.25,1537.5,-427.5,67.5,1091.25,1631.25,1740,1676.25,874.1666666666666
478,472.5,1466.25,-420,45,1136.25,1680,1758.75,1657.5,866.25
479,401.25,1413.75,-446.25,-22.5,1132.5,1680,1740,1616.25,835.0
480,311.25,1301.25,-483.75,-127.5,1042.5,1563.75,1612.5,1492.5,745.8333333333334
481,176.25,1106.25,-468.75,-202.5,896.25,1350,1383.75,1278.75,613.3333333333334
482,41.25,911.25,-420,-270,697.5,1076.25,1102.5,1035,463.75
483,-56.25,727.5,-431.25,-416.25,405,735,798.75,787.5,283.3333333333333
484,-142.5,551.25,-465,-600,78.75,386.25,491.25,555,95.0
485,-225,412.5,-457.5,-716.25,-150,127.5,258.75,367.5,-42.5
486,-270,307.5,-427.5,-720,-247.5,-11.25,112.5,221.25,-115.0
487,-281.25,202.5,-401.25,-675,-258.75,-67.5,15,105,-151.25
488,-288.75,108.75,-397.5,-633.75,-255,-93.75,-37.5,33.75,-173.75
489,-273.75,86.25,-386.25,-566.25,-217.5,-75,-30,26.25,-159.58333333333334
490,-232.5,97.5,-352.5,-487.5,-172.5,-41.25,-3.75,45,-127.5
491,-206.25,86.25,-330,-446.25,-180,-56.25,-11.25,33.75,-123.33333333333333
492,-176.25,82.5,-296.25,-393.75,-176.25,-63.75,-18.75,33.75,-112.08333333333333
493,-138.75,97.5,-262.5,-330,-153.75,-52.5,-11.25,37.5,-90.41666666666667
494,-108.75,112.5,-236.25,-273.75,-123.75,-45,-11.25,37.5,-72.08333333333333
495,-75,135,-210,-213.75,-82.5,-18.75,3.75,48.75,-45.833333333333336
496,-52.5,138.75,-176.25,-153.75,-41.25,7.5,26.25,63.75,-20.833333333333332
497,-48.75,127.5,-127.5,-93.75,-3.75,30,41.25,71.25,-0.4166666666666667
498,-45,116.25,-90,-60,11.25,37.5,41.25,67.5,8.75
499,-63.75,97.5,-78.75,-52.5,7.5,26.25,26.25,56.25,2.0833333333333335
500,-86.25,78.75,-71.25,-52.5,-3.75,11.25,7.5,33.75,-9.166666666666666
501,-90,78.75,-45,-33.75,3.75,15,11.25,37.5,-2.5
502,-75,82.5,-33.75,-22.5,7.5,15,7.5,33.75,1.6666666666666667
503,-56.25,82.5,-37.5,-30,-7.5,-3.75,-3.75,18.75,-4.166666666666667
504,-56.25,86.25,-33.75,-26.25,-11.25,-7.5,-7.5,15,-4.583333333333333
505,-67.5,78.75,-26.25,-22.5,-15,-15,-18.75,7.5,-8.75
506,-78.75,60,-33.75,-30,-26.25,-30,-33.75,-3.75,-19.583333333333332
507,-75,52.5,-30,-30,-30,-33.75,-33.75,-3.75,-20.416666666666668
508,-56.25,52.5,-33.75,-33.75,-37.5,-41.25,-41.25,-11.25,-22.5
509,-33.75,67.5,-30,-30,-37.5,-37.5,-37.5,-11.25,-16.666666666666668
510,-41.25,63.75,-22.5,-26.25,-33.75,-33.75,-37.5,-7.5,-15.416666666666666
511,-52.5,48.75,-26.25,-30,-41.25,-41.25,-41.25,-11.25,-21.666666666666668
512,-52.5,37.5,-30,-37.5,-52.5,-48.75,-52.5,-22.5,-28.75
513,-63.75,18.75,-33.75,-37.5,-56.25,-52.5,-56.25,-26.25,-34.166666666666664
514,-78.75,15,-30,-37.5,-52.5,-52.5,-56.25,-26.25,-35.416666666666664
515,-75,37.5,-26.25,-30,-48.75,-48.75,-56.25,-26.25,-30.416666666666668
516,-52.5,71.25,-18.75,-22.5,-41.25,-45,-48.75,-18.75,-19.583333333333332
517,-41.25,75,-15,-15,-41.25,-45,-48.75,-15,-16.25
518,-45,48.75,-30,-26.25,-52.5,-56.25,-60,-26.25,-27.5
519,-48.75,45,-30,-26.25,-48.75,-52.5,-52.5,-18.75,-25.833333333333332
520,-41.25,52.5,-18.75,-15,-37.5,-41.25,-45,-11.25,-17.5
521,-30,52.5,-18.75,-15,-37.5,-37.5,-41.25,-7.5,-15.0
522,-26.25,60,-22.5,-18.75,-41.25,-41.25,-45,-11.25,-16.25
523,-33.75,63.75,-26.25,-26.25,-48.75,-45,-48.75,-15,-20.0
524,-26.25,71.25,-26.25,-26.25,-45,-41.25,-48.75,-15,-17.5
525,-37.5,56.25,-30,-30,-52.5,-45,-52.5,-22.5,-23.75
526,-48.75,41.25,-33.75,-33.75,-56.25,-52.5,-56.25,-26.25,-29.583333333333332
527,-60,30,-37.5,-30,-56.25,-52.5,-56.25,-26.25,-32.083333333333336
528,-52.5,41.25,-30,-18.75,-45,-41.25,-48.75,-15,-23.333333333333332
529,-26.25,67.5,-26.25,-7.5,-37.5,-37.5,-41.25,-11.25,-13.333333333333334
530,-41.25,52.5,-37.5,-18.75,-45,-45,-48.75,-18.75,-22.5
531,-56.25,37.5,-45,-26.25,-56.25,-52.5,-52.5,-22.5,-30.416666666666668
532,-30,67.5,-33.75,-11.25,-41.25,-37.5,-37.5,-7.5,-14.583333333333334
533,-11.25,93.75,-22.5,0,-30,-22.5,-26.25,3.75,-1.6666666666666667
534,-18.75,78.75,-30,-7.5,-33.75,-26.25,-26.25,0,-7.083333333333333
535,-22.5,52.5,-33.75,-15,-37.5,-30,-33.75,-7.5,-14.166666666666666
536,-7.5,56.25,-33.75,-11.25,-37.5,-30,-33.75,-7.5,-11.666666666666666
537,-7.5,67.5,-22.5,0,-26.25,-18.75,-22.5,3.75,-2.9166666666666665
538,-15,75,-15,7.5,-18.75,-7.5,-15,11.25,2.5
539,-15,86.25,-18.75,11.25,-15,-7.5,-11.25,15,5.0
540,3.75,112.5,-15,18.75,-7.5,0,-3.75,22.5,14.583333333333334
541,33.75,120,-11.25,26.25,-3.75,3.75,-3.75,26.25,21.25
542,18.75,90,-30,11.25,-18.75,-15,-15,11.25,5.833333333333333
543,-7.5,67.5,-45,0,-26.25,-22.5,-26.25,0,-6.666666666666667
544,-7.5,71.25,-37.5,7.5,-18.75,-15,-18.75,11.25,-0.8333333333333334
545,-3.75,71.25,-37.5,11.25,-15,-7.5,-11.25,15,2.5
546,7.5,75,-37.5,11.25,-15,-7.5,-11.25,15,4.166666666666667
547,7.5,78.75,-37.5,7.5,-15,-3.75,-7.5,15,5.0
548,-11.25,67.5,-33.75,11.25,-11.25,0,-3.75,18.75,4.166666666666667
549,-18.75,63.75,-33.75,15,-7.5,3.75,-3.75,18.75,4.166666666666667
550,0,82.5,-37.5,15,-7.5,3.75,0,18.75,8.333333333333334
551,3.75,93.75,-26.25,26.25,3.75,15,7.5,30,17.083333333333332
552,7.5,112.5,-15,45,18.75,30,18.75,45,29.166666666666668
553,37.5,135,-15,48.75,22.5,30,22.5,48.75,36.666666666666664
554,45,127.5,-22.5,45,18.75,30,18.75,45,34.166666666666664
555,45,108.75,-22.5,48.75,26.25,33.75,26.25,48.75,35.0
556,56.25,116.25,-22.5,52.5,26.25,37.5,30,52.5,38.75
557,56.25,127.5,-26.25,45,18.75,33.75,22.5,48.75,36.25
558,45,120,-37.5,37.5,15,26.25,18.75,41.25,29.583333333333332
559,30,97.5,-45,30,11.25,26.25,15,37.5,22.5
560,18.75,78.75,-48.75,30,7.5,26.25,15,41.25,18.75
561,7.5,75,-56.25,26.25,7.5,22.5,11.25,33.75,14.166666666666666
562,15,86.25,-48.75,33.75,18.75,30,22.5,45,22.5
563,33.75,101.25,-33.75,52.5,30,48.75,37.5,60,36.666666666666664
564,41.25,127.5,-22.5,67.5,45,60,48.75,71.25,48.75
565,52.5,146.25,-30,67.5,41.25,52.5,45,67.5,49.166666666666664
566,60,131.25,-41.25,52.5,30,41.25,33.75,56.25,40.416666666666664
567,56.25,120,-52.5,45,22.5,37.5,26.25,52.5,34.166666666666664
568,63.75,135,-48.75,52.5,33.75,48.75,37.5,63.75,42.916666666666664
569,63.75,127.5,-48.75,56.25,33.75,52.5,41.25,67.5,43.75
570,60,123.75,-56.25,45,26.25,45,33.75,60,37.5
571,71.25,142.5,-60,41.25,26.25,45,37.5,60,40.416666666666664
572,78.75,142.5,-60,41.25,26.25,48.75,37.5,63.75,42.083333333333336
573,52.5,116.25,-52.5,48.75,33.75,56.25,45,71.25,41.25
574,45,112.5,-45,60,45,63.75,56.25,82.5,46.666666666666664
575,71.25,131.25,-45,63.75,48.75,67.5,60,82.5,53.333333333333336
576,93.75,165,-41.25,71.25,52.5,71.25,63.75,90,62.916666666666664
577,101.25,176.25,-41.25,78.75,56.25,75,67.5,97.5,67.91666666666667
578,105,161.25,-48.75,71.25,48.75,71.25,63.75,93.75,62.916666666666664
579,123.75,161.25,-60,60,41.25,63.75,60,86.25,59.583333333333336
580,127.5,176.25,-56.25,63.75,45,71.25,67.5,97.5,65.83333333333333
581,120,191.25,-60,60,41.25,71.25,71.25,97.5,65.83333333333333
582,123.75,195,-67.5,56.25,33.75,67.5,63.75,93.75,62.916666666666664
583,131.25,180,-63.75,60,37.5,67.5,63.75,93.75,63.333333333333336
584,131.25,168.75,-60,60,37.5,75,67.5,97.5,64.16666666666667
585,135,176.25,-56.25,63.75,45,82.5,78.75,105,70.0
586,142.5,180,-56.25,67.5,45,82.5,78.75,112.5,72.5
587,116.25,153.75,-56.25,71.25,45,82.5,82.5,112.5,67.5
588,123.75,165,-52.5,75,48.75,82.5,82.5,116.25,71.25
589,146.25,195,-52.5,78.75,48.75,82.5,82.5,120,77.91666666666667
590,138.75,191.25,-60,67.5,37.5,75,75,112.5,70.83333333333333
591,123.75,176.25,-67.5,60,30,71.25,71.25,112.5,64.16666666666667
592,120,176.25,-75,52.5,22.5,63.75,67.5,105,59.166666666666664
593,131.25,191.25,-71.25,52.5,22.5,63.75,67.5,105,62.5
594,146.25,191.25,-67.5,56.25,26.25,67.5,75,116.25,67.91666666666667
595,150,187.5,-71.25,56.25,22.5,71.25,78.75,116.25,67.91666666666667
596,146.25,195,-71.25,48.75,18.75,67.5,75,116.25,66.25
597,150,202.5,-63.75,52.5,22.5,71.25,78.75,120,70.41666666666667
598,157.5,202.5,-52.5,63.75,30,75,86.25,127.5,76.66666666666667
599,153.75,206.25,-52.5,67.5,30,78.75,86.25,131.25,77.91666666666667
600,157.5,225,-52.5,67.5,26.25,75,86.25,127.5,79.16666666666667
601,172.5,228.75,-56.25,67.5,22.5,67.5,78.75,123.75,78.33333333333333
602,180,221.25,-56.25,63.75,18.75,63.75,75,120,76.25
603,180,232.5,-52.5,67.5,18.75,67.5,78.75,123.75,79.58333333333333
604,161.25,232.5,-48.75,63.75,15,63.75,78.75,123.75,76.66666666666667
605,165,225,-56.25,56.25,7.5,52.5,67.5,112.5,70.0
606,172.5,217.5,-56.25,52.5,0,45,60,108.75,66.66666666666667
607,161.25,206.25,-56.25,45,-3.75,45,60,105,62.5
608,131.25,183.75,-56.25,41.25,-7.5,41.25,60,101.25,55.0
609,123.75,183.75,-52.5,45,-7.5,41.25,56.25,101.25,54.583333333333336
610,123.75,176.25,-45,48.75,-3.75,41.25,52.5,101.25,55.0
611,112.5,165,-41.25,52.5,-3.75,41.25,52.5,97.5,52.916666666666664
612,116.25,191.25,-33.75,60,-3.75,37.5,48.75,97.5,57.083333333333336
613,112.5,198.75,-33.75,60,-7.5,30,41.25,93.75,55.0
614,101.25,180,-30,60,-7.5,30,41.25,90,51.666666666666664
615,97.5,161.25,-30,52.5,-15,22.5,33.75,82.5,45.0
616,90,153.75,-26.25,52.5,-15,18.75,26.25,75,41.666666666666664
617,90,157.5,-18.75,52.5,-15,18.75,26.25,75,42.916666666666664
618,97.5,150,-22.5,41.25,-26.25,7.5,15,63.75,36.25
619,97.5,142.5,-22.5,33.75,-37.5,-3.75,3.75,48.75,29.166666666666668
620,75,138.75,-11.25,37.5,-30,3.75,7.5,52.5,30.416666666666668
621,60,142.5,0,45,-26.25,7.5,11.25,56.25,32.916666666666664
622,60,150,3.75,48.75,-22.5,7.5,11.25,56.25,35.0
623,67.5,161.25,0,45,-30,0,0,41.25,31.666666666666668
624,75,176.25,0,45,-33.75,-3.75,-3.75,37.5,32.5
625,63.75,172.5,0,45,-30,-7.5,-7.5,37.5,30.416666666666668
626,52.5,153.75,-3.75,30,-41.25,-18.75,-18.75,26.25,20.0
627,37.5,138.75,0,30,-41.25,-15,-15,26.25,17.916666666666668
628,15,116.25,0,30,-41.25,-18.75,-18.75,22.5,11.666666666666666
629,7.5,90,-7.5,15,-52.5,-30,-30,11.25,0.4166666666666667
630,0,75,-11.25,7.5,-60,-37.5,-37.5,0,-7.083333333333333
631,-3.75,75,-11.25,0,-67.5,-41.25,-45,-7.5,-11.25
632,-7.5,82.5,-7.5,-3.75,-67.5,-41.25,-45,-7.5,-10.833333333333334
633,-11.25,93.75,-7.5,-3.75,-67.5,-45,-48.75,-11.25,-11.25
634,-26.25,86.25,0,-7.5,-67.5,-45,-48.75,-15,-13.75
635,-41.25,71.25,-3.75,-7.5,-71.25,-48.75,-56.25,-15,-19.166666666666668
636,-33.75,78.75,0,-3.75,-67.5,-48.75,-52.5,-15,-15.833333333333334
637,-22.5,90,3.75,0,-63.75,-45,-48.75,-11.25,-10.833333333333334
638,-30,75,-7.5,-11.25,-75,-56.25,-60,-18.75,-20.416666666666668
639,-37.5,60,-7.5,-18.75,-82.5,-56.25,-63.75,-22.5,-25.416666666666668
640,-45,56.25,-11.25,-22.5,-86.25,-60,-63.75,-26.25,-28.75
641,-41.25,63.75,-11.25,-30,-86.25,-60,-67.5,-30,-29.166666666666668
642,-37.5,63.75,-15,-33.75,-93.75,-67.5,-75,-37.5,-32.916666666666664
643,-67.5,30,-18.75,-48.75,-101.25,-75,-82.5,-45,-45.416666666666664
644,-78.75,18.75,-15,-52.5,-101.25,-75,-82.5,-48.75,-48.333333333333336
645,-60,37.5,-7.5,-45,-97.5,-67.5,-78.75,-41.25,-40.0
646,-60,41.25,-11.25,-48.75,-97.5,-71.25,-78.75,-41.25,-40.833333333333336
647,-78.75,26.25,3.75,-37.5,-90,-63.75,-71.25,-33.75,-38.333333333333336
648,-78.75,41.25,11.25,-26.25,-82.5,-56.25,-63.75,-26.25,-31.25
649,-56.25,78.75,7.5,-30,-82.5,-60,-67.5,-30,-26.666666666666668
650,-60,67.5,-7.5,-45,-93.75,-71.25,-78.75,-41.25,-36.666666666666664
651,-67.5,45,-11.25,-56.25,-105,-78.75,-86.25,-45,-45.0
652,-71.25,33.75,-22.5,-67.5,-116.25,-90,-97.5,-56.25,-54.166666666666664
653,-90,18.75,-26.25,-71.25,-120,-93.75,-101.25,-60,-60.416666666666664
654,-101.25,-3.75,-26.25,-78.75,-123.75,-97.5,-105,-67.5,-67.08333333333333
655,-86.25,-3.75,-26.25,-82.5,-127.5,-97.5,-105,-63.75,-65.83333333333333
656,-86.25,-3.75,-22.5,-82.5,-123.75,-90,-97.5,-60,-62.916666666666664
657,-90,3.75,-18.75,-75,-120,-86.25,-90,-56.25,-59.166666666666664
658,-90,22.5,-15,-71.25,-116.25,-86.25,-90,-52.5,-55.416666666666664
659,-93.75,26.25,-18.75,-75,-116.25,-90,-93.75,-56.25,-57.5
660,-82.5,33.75,-15,-71.25,-116.25,-86.25,-90,-52.5,-53.333333333333336
661,-71.25,41.25,-15,-67.5,-112.5,-86.25,-90,-52.5,-50.416666666666664
662,-86.25,18.75,-22.5,-71.25,-120,-93.75,-97.5,-60,-59.166666666666664
663,-93.75,15,-22.5,-78.75,-123.75,-93.75,-97.5,-63.75,-62.083333333333336
664,-78.75,37.5,-22.5,-78.75,-120,-93.75,-97.5,-60,-57.083333333333336
665,-108.75,22.5,-30,-82.5,-123.75,-97.5,-101.25,-63.75,-65.0
666,-123.75,-7.5,-41.25,-97.5,-135,-108.75,-112.5,-71.25,-77.5
667,-116.25,-22.5,-41.25,-97.5,-138.75,-108.75,-112.5,-75,-79.16666666666667
668,-112.5,-26.25,-37.5,-97.5,-135,-105,-108.75,-75,-77.5
669,-105,-11.25,-30,-86.25,-127.5,-93.75,-97.5,-63.75,-68.33333333333333
670,-78.75,15,-18.75,-75,-116.25,-86.25,-86.25,-52.5,-55.416666666666664
671,-75,18.75,-15,-67.5,-108.75,-82.5,-82.5,-48.75,-51.25
672,-105,7.5,-26.25,-75,-120,-90,-93.75,-60,-62.5
673,-93.75,33.75,-26.25,-71.25,-112.5,-90,-90,-56.25,-56.25
674,-78.75,37.5,-26.25,-71.25,-112.5,-90,-90,-56.25,-54.166666666666664
675,-93.75,11.25,-26.25,-71.25,-116.25,-86.25,-90,-56.25,-58.75
676,-93.75,15,-26.25,-71.25,-112.5,-82.5,-86.25,-52.5,-56.666666666666664
677,-90,30,-26.25,-75,-116.25,-86.25,-90,-60,-57.083333333333336
678,-82.5,37.5,-26.25,-75,-116.25,-86.25,-93.75,-63.75,-56.25
679,-82.5,26.25,-30,-82.5,-120,-90,-101.25,-67.5,-60.833333333333336
680,-101.25,3.75,-30,-86.25,-123.75,-93.75,-101.25,-71.25,-67.08333333333333
681,-90,15,-18.75,-71.25,-108.75,-78.75,-86.25,-56.25,-55.0
682,-52.5,37.5,-11.25,-63.75,-101.25,-75,-82.5,-52.5,-44.583333333333336
683,-75,22.5,-18.75,-67.5,-105,-78.75,-82.5,-56.25,-51.25
684,-123.75,-7.5,-18.75,-60,-105,-75,-78.75,-52.5,-57.916666666666664
685,-120,-11.25,-22.5,-60,-105,-78.75,-82.5,-52.5,-59.166666666666664
686,-116.25,-3.75,-33.75,-75,-112.5,-90,-90,-63.75,-65.0
687,-135,3.75,-37.5,-75,-116.25,-90,-93.75,-63.75,-67.5
688,-112.5,15,-33.75,-75,-112.5,-86.25,-90,-60,-61.666666666666664
689,-82.5,18.75,-33.75,-75,-112.5,-82.5,-86.25,-56.25,-56.666666666666664
690,-75,22.5,-22.5,-67.5,-105,-75,-78.75,-52.5,-50.416666666666664
691,-78.75,18.75,-18.75,-67.5,-105,-75,-78.75,-52.5,-50.833333333333336
692,-101.25,7.5,-22.5,-75,-105,-75,-82.5,-56.25,-56.666666666666664
693,-93.75,26.25,-22.5,-71.25,-105,-75,-82.5,-56.25,-53.333333333333336
694,-97.5,22.5,-30,-78.75,-112.5,-82.5,-90,-63.75,-59.166666666666664
695,-93.75,22.5,-22.5,-71.25,-105,-78.75,-82.5,-56.25,-54.166666666666664
696,-67.5,63.75,-7.5,-52.5,-90,-63.75,-71.25,-41.25,-36.666666666666664
697,-56.25,78.75,-7.5,-48.75,-86.25,-63.75,-67.5,-37.5,-32.083333333333336
698,-71.25,41.25,-18.75,-60,-97.5,-71.25,-78.75,-48.75,-45.0
699,-75,30,-22.5,-63.75,-97.5,-71.25,-78.75,-48.75,-47.5
700,-78.75,37.5,-30,-75,-105,-78.75,-86.25,-56.25,-52.5
701,-75,41.25,-26.25,-71.25,-101.25,-78.75,-82.5,-48.75,-49.166666666666664
702,-78.75,33.75,-22.5,-67.5,-97.5,-71.25,-75,-45,-47.083333333333336
703,-90,15,-26.25,-75,-101.25,-75,-78.75,-52.5,-53.75
704,-101.25,3.75,-30,-78.75,-105,-75,-82.5,-56.25,-58.333333333333336
705,-108.75,7.5,-22.5,-71.25,-97.5,-67.5,-75,-48.75,-53.75
706,-123.75,-3.75,-26.25,-75,-105,-75,-82.5,-56.25,-60.833333333333336
707,-123.75,-7.5,-33.75,-82.5,-112.5,-82.5,-86.25,-60,-65.41666666666667
708,-105,22.5,-33.75,-75,-105,-78.75,-86.25,-56.25,-57.5
709,-93.75,37.5,-33.75,-75,-108.75,-82.5,-86.25,-56.25,-55.416666666666664
710,-86.25,33.75,-41.25,-82.5,-112.5,-86.25,-90,-60,-58.333333333333336
711,-67.5,56.25,-30,-75,-105,-75,-78.75,-52.5,-47.5
712,-56.25,75,-26.25,-71.25,-105,-71.25,-75,-48.75,-42.083333333333336
713,-75,45,-33.75,-78.75,-108.75,-78.75,-82.5,-52.5,-51.666666666666664
714,-67.5,18.75,-33.75,-82.5,-108.75,-78.75,-82.5,-52.5,-54.166666666666664
715,-48.75,33.75,-26.25,-75,-101.25,-67.5,-75,-45,-45.0
716,-56.25,48.75,-15,-67.5,-97.5,-60,-63.75,-37.5,-38.75
717,-82.5,22.5,-26.25,-78.75,-105,-71.25,-75,-48.75,-51.666666666666664
718,-108.75,-15,-37.5,-90,-112.5,-82.5,-86.25,-56.25,-65.41666666666667
719,-97.5,7.5,-30,-78.75,-105,-75,-78.75,-48.75,-56.25
720,-82.5,56.25,-30,-75,-105,-75,-82.5,-48.75,-49.166666666666664
721,-90,45,-41.25,-86.25,-116.25,-82.5,-86.25,-56.25,-57.083333333333336
722,-101.25,3.75,-45,-93.75,-120,-90,-90,-60,-66.25
723,-90,11.25,-45,-90,-120,-86.25,-90,-56.25,-62.916666666666664
724,-90,26.25,-52.5,-93.75,-123.75,-93.75,-97.5,-60,-65.0
725,-101.25,18.75,-56.25,-101.25,-127.5,-97.5,-97.5,-63.75,-69.58333333333333
726,-101.25,15,-60,-105,-131.25,-97.5,-101.25,-67.5,-72.08333333333333
727,-97.5,11.25,-56.25,-105,-131.25,-93.75,-97.5,-67.5,-70.83333333333333
728,-90,18.75,-48.75,-101.25,-123.75,-82.5,-90,-60,-64.16666666666667
729,-105,3.75,-45,-93.75,-116.25,-78.75,-82.5,-52.5,-63.333333333333336
730,-108.75,-22.5,-37.5,-90,-116.25,-75,-78.75,-52.5,-64.58333333333333
731,-112.5,-18.75,-26.25,-78.75,-108.75,-71.25,-75,-45,-59.583333333333336
732,-123.75,3.75,-37.5,-86.25,-116.25,-78.75,-82.5,-56.25,-64.16666666666667
733,-86.25,33.75,-52.5,-97.5,-127.5,-90,-90,-63.75,-63.75
734,-56.25,45,-48.75,-93.75,-127.5,-90,-90,-60,-57.916666666666664
735,-63.75,26.25,-45,-90,-120,-86.25,-86.25,-52.5,-57.5
736,-63.75,18.75,-33.75,-82.5,-108.75,-71.25,-71.25,-41.25,-50.416666666666664
737,-67.5,37.5,-37.5,-90,-120,-82.5,-82.5,-52.5,-55.0
738,-75,45,-41.25,-97.5,-127.5,-90,-90,-60,-59.583333333333336
739,-90,11.25,-41.25,-101.25,-127.5,-86.25,-86.25,-56.25,-64.16666666666667
740,-120,-33.75,-48.75,-108.75,-138.75,-93.75,-93.75,-63.75,-77.91666666666667
741,-112.5,-15,-41.25,-101.25,-127.5,-90,-86.25,-56.25,-70.0
742,-90,15,-45,-105,-131.25,-93.75,-93.75,-63.75,-67.5
743,-82.5,18.75,-56.25,-112.5,-142.5,-105,-105,-75,-73.33333333333333
744,-60,48.75,-48.75,-101.25,-131.25,-93.75,-93.75,-60,-60.0
745,-67.5,45,-48.75,-101.25,-131.25,-97.5,-93.75,-60,-61.666666666666664
746,-101.25,-3.75,-56.25,-112.5,-142.5,-105,-101.25,-67.5,-76.66666666666667
747,-112.5,-26.25,-60,-116.25,-146.25,-105,-105,-71.25,-82.5
748,-112.5,-18.75,-60,-116.25,-146.25,-105,-105,-67.5,-81.25
749,-90,11.25,-56.25,-116.25,-142.5,-105,-101.25,-63.75,-73.75
750,-78.75,3.75,-52.5,-116.25,-146.25,-105,-101.25,-67.5,-73.75
751,-108.75,-33.75,-52.5,-120,-146.25,-105,-101.25,-67.5,-81.66666666666667
752,-135,-37.5,-60,-127.5,-153.75,-112.5,-108.75,-78.75,-90.41666666666667
753,-108.75,-7.5,-52.5,-123.75,-146.25,-105,-101.25,-71.25,-79.58333333333333
754,-63.75,22.5,-41.25,-108.75,-131.25,-93.75,-90,-56.25,-62.5
755,-60,33.75,-30,-97.5,-123.75,-86.25,-82.5,-48.75,-55.0
756,-82.5,30,-33.75,-97.5,-123.75,-90,-86.25,-52.5,-59.583333333333336
757,-97.5,7.5,-48.75,-108.75,-138.75,-105,-101.25,-67.5,-73.33333333333333
758,-90,7.5,-56.25,-120,-150,-116.25,-108.75,-75,-78.75
759,-63.75,37.5,-48.75,-112.5,-142.5,-105,-97.5,-63.75,-66.25
760,-48.75,52.5,-45,-108.75,-135,-97.5,-93.75,-60,-59.583333333333336
761,-48.75,48.75,-41.25,-105,-131.25,-93.75,-90,-56.25,-57.5
762,-67.5,26.25,-45,-116.25,-142.5,-105,-97.5,-63.75,-67.91666666666667
763,-116.25,-18.75,-52.5,-127.5,-153.75,-112.5,-108.75,-75,-85.0
764,-131.25,-33.75,-63.75,-138.75,-161.25,-120,-112.5,-82.5,-93.75
765,-123.75,-26.25,-60,-131.25,-153.75,-112.5,-108.75,-78.75,-88.33333333333333
766,-120,-33.75,-60,-135,-157.5,-116.25,-116.25,-86.25,-91.66666666666667
767,-108.75,-30,-56.25,-131.25,-157.5,-116.25,-112.5,-82.5,-88.33333333333333
768,-101.25,-18.75,-48.75,-116.25,-146.25,-108.75,-105,-71.25,-79.58333333333333
769,-86.25,-3.75,-45,-108.75,-138.75,-105,-101.25,-63.75,-72.5
770,-75,3.75,-56.25,-120,-150,-112.5,-108.75,-71.25,-76.66666666666667
771,-86.25,7.5,-60,-123.75,-153.75,-112.5,-112.5,-75,-79.58333333333333
772,-120,-15,-63.75,-131.25,-161.25,-120,-120,-82.5,-90.41666666666667
773,-138.75,-30,-67.5,-135,-161.25,-123.75,-120,-82.5,-95.41666666666667
774,-116.25,-18.75,-63.75,-135,-157.5,-120,-116.25,-78.75,-89.58333333333333
775,-97.5,-30,-67.5,-138.75,-161.25,-120,-116.25,-78.75,-90.0
776,-90,-33.75,-63.75,-135,-157.5,-116.25,-112.5,-78.75,-87.5
777,-101.25,-15,-60,-135,-157.5,-116.25,-116.25,-78.75,-86.66666666666667
778,-101.25,7.5,-60,-131.25,-157.5,-116.25,-116.25,-78.75,-83.75
779,-90,26.25,-56.25,-123.75,-150,-112.5,-108.75,-75,-76.66666666666667
780,-78.75,30,-45,-108.75,-138.75,-101.25,-97.5,-60,-66.66666666666667
781,-71.25,30,-48.75,-112.5,-142.5,-108.75,-105,-67.5,-69.58333333333333
782,-67.5,18.75,-56.25,-120,-150,-112.5,-108.75,-71.25,-74.16666666666667
783,-78.75,-7.5,-48.75,-116.25,-146.25,-108.75,-105,-67.5,-75.41666666666667
784,-97.5,-15,-52.5,-120,-150,-112.5,-112.5,-71.25,-81.25
785,-116.25,-7.5,-63.75,-131.25,-157.5,-120,-116.25,-82.5,-88.33333333333333
786,-105,-15,-60,-131.25,-157.5,-116.25,-116.25,-78.75,-86.66666666666667
787,-86.25,-15,-48.75,-123.75,-146.25,-105,-105,-71.25,-77.91666666666667
788,-90,0,-52.5,-127.5,-150,-108.75,-108.75,-75,-79.16666666666667
789,-112.5,-15,-60,-135,-157.5,-116.25,-120,-82.5,-88.75
790,-127.5,-37.5,-67.5,-138.75,-165,-123.75,-123.75,-90,-97.08333333333333
791,-105,-7.5,-60,-127.5,-153.75,-112.5,-116.25,-78.75,-84.58333333333333
792,-86.25,11.25,-56.25,-123.75,-153.75,-112.5,-112.5,-75,-78.75
793,-97.5,-11.25,-56.25,-120,-150,-112.5,-112.5,-75,-81.66666666666667
794,-86.25,-22.5,-52.5,-116.25,-142.5,-105,-105,-67.5,-77.5
795,-75,-30,-37.5,-101.25,-127.5,-90,-93.75,-52.5,-67.5
796,-86.25,-22.5,-33.75,-101.25,-127.5,-90,-90,-52.5,-67.08333333333333
797,-90,26.25,-48.75,-112.5,-138.75,-101.25,-105,-63.75,-70.41666666666667
798,-90,41.25,-48.75,-116.25,-142.5,-101.25,-101.25,-67.5,-69.58333333333333
799,-101.25,11.25,-41.25,-112.5,-138.75,-97.5,-101.25,-67.5,-72.08333333333333
800,-90,15,-37.5,-116.25,-138.75,-97.5,-105,-71.25,-71.25
801,-90,26.25,-22.5,-101.25,-131.25,-86.25,-93.75,-60,-62.083333333333336
802,-101.25,26.25,-7.5,-90,-120,-78.75,-86.25,-52.5,-56.666666666666664
803,-93.75,37.5,-3.75,-82.5,-116.25,-75,-86.25,-52.5,-52.5
804,-86.25,48.75,-7.5,-82.5,-120,-82.5,-90,-56.25,-52.916666666666664
805,-97.5,33.75,-11.25,-82.5,-120,-82.5,-90,-60,-56.666666666666664
806,-105,15,-7.5,-78.75,-112.5,-78.75,-86.25,-52.5,-56.25
807,-86.25,26.25,0,-67.5,-101.25,-67.5,-78.75,-48.75,-47.083333333333336
808,-60,45,7.5,-63.75,-97.5,-60,-71.25,-41.25,-37.916666666666664
809,-45,45,7.5,-60,-93.75,-60,-71.25,-41.25,-35.416666666666664
810,-52.5,33.75,11.25,-60,-97.5,-60,-71.25,-41.25,-37.5
811,-60,30,18.75,-56.25,-93.75,-56.25,-67.5,-41.25,-36.25
812,-63.75,45,18.75,-56.25,-93.75,-52.5,-60,-41.25,-33.75
813,-71.25,71.25,26.25,-48.75,-86.25,-45,-52.5,-33.75,-26.666666666666668
814,-67.5,86.25,33.75,-41.25,-78.75,-41.25,-52.5,-30,-21.25
815,-67.5,90,26.25,-41.25,-78.75,-41.25,-52.5,-26.25,-21.25
816,-56.25,112.5,15,-45,-78.75,-41.25,-52.5,-22.5,-18.75
817,-56.25,108.75,-7.5,-56.25,-90,-52.5,-63.75,-30,-27.5
818,-75,60,-33.75,-75,-105,-63.75,-71.25,-41.25,-45.0
819,-48.75,60,-41.25,-71.25,-97.5,-56.25,-63.75,-30,-38.75
820,-18.75,82.5,-45,-67.5,-90,-45,-52.5,-18.75,-28.333333333333332
821,-11.25,82.5,-56.25,-75,-97.5,-48.75,-56.25,-22.5,-31.666666666666668
822,-11.25,75,-67.5,-86.25,-105,-56.25,-63.75,-33.75,-38.75
823,-26.25,56.25,-67.5,-90,-105,-56.25,-60,-33.75,-42.5
824,-33.75,45,-63.75,-93.75,-105,-56.25,-60,-30,-44.166666666666664
825,-30,67.5,-71.25,-101.25,-112.5,-60,-63.75,-33.75,-45.0
826,-37.5,71.25,-82.5,-112.5,-123.75,-67.5,-71.25,-37.5,-51.25
827,-45,48.75,-90,-120,-131.25,-78.75,-78.75,-45,-60.0
828,-45,37.5,-71.25,-105,-116.25,-63.75,-63.75,-30,-50.833333333333336
829,-33.75,37.5,-67.5,-101.25,-112.5,-63.75,-63.75,-30,-48.333333333333336
830,-37.5,41.25,-82.5,-120,-135,-82.5,-82.5,-45,-60.416666666666664
831,-56.25,26.25,-90,-131.25,-142.5,-93.75,-93.75,-56.25,-70.83333333333333
832,-56.25,7.5,-78.75,-123.75,-135,-86.25,-90,-52.5,-68.33333333333333
833,-41.25,7.5,-71.25,-116.25,-127.5,-78.75,-86.25,-52.5,-62.916666666666664
834,-56.25,-7.5,-78.75,-127.5,-142.5,-90,-97.5,-63.75,-73.75
835,-63.75,-18.75,-82.5,-135,-150,-93.75,-101.25,-71.25,-79.58333333333333
836,-56.25,-3.75,-67.5,-127.5,-138.75,-82.5,-90,-56.25,-69.16666666666667
837,-52.5,15,-56.25,-116.25,-127.5,-75,-82.5,-48.75,-60.416666666666664
838,-67.5,7.5,-52.5,-112.5,-127.5,-75,-82.5,-52.5,-62.5
839,-97.5,-22.5,-56.25,-112.5,-131.25,-82.5,-86.25,-56.25,-71.66666666666667
840,-105,-11.25,-60,-116.25,-138.75,-90,-93.75,-63.75,-75.41666666666667
841,-97.5,-3.75,-71.25,-127.5,-150,-105,-108.75,-75,-82.08333333333333
842,-101.25,-18.75,-82.5,-142.5,-165,-116.25,-120,-86.25,-92.5
843,-116.25,-30,-78.75,-142.5,-165,-112.5,-116.25,-82.5,-93.75
844,-127.5,-52.5,-78.75,-146.25,-165,-116.25,-120,-86.25,-99.16666666666667
845,-142.5,-78.75,-78.75,-150,-165,-116.25,-123.75,-90,-105.0
846,-138.75,-97.5,-75,-150,-168.75,-120,-123.75,-93.75,-107.5
847,-131.25,-97.5,-67.5,-150,-165,-116.25,-120,-90,-104.16666666666667
848,-138.75,-86.25,-67.5,-150,-168.75,-116.25,-123.75,-90,-104.58333333333333
849,-138.75,-71.25,-63.75,-146.25,-168.75,-116.25,-123.75,-90,-102.08333333333333
850,-127.5,-56.25,-75,-157.5,-180,-127.5,-131.25,-101.25,-106.25
851,-127.5,-48.75,-86.25,-161.25,-180,-131.25,-135,-105,-108.33333333333333
852,-120,-37.5,-75,-146.25,-168.75,-120,-127.5,-93.75,-98.75
853,-97.5,-30,-71.25,-142.5,-165,-116.25,-123.75,-90,-92.91666666666667
854,-105,-37.5,-78.75,-150,-172.5,-123.75,-127.5,-97.5,-99.16666666666667
855,-120,-41.25,-78.75,-153.75,-172.5,-127.5,-131.25,-97.5,-102.5
856,-112.5,-41.25,-75,-150,-172.5,-120,-127.5,-93.75,-99.16666666666667
857,-97.5,-41.25,-71.25,-146.25,-168.75,-120,-127.5,-93.75,-96.25
858,-105,-33.75,-75,-153.75,-172.5,-123.75,-131.25,-97.5,-99.16666666666667
859,-101.25,-26.25,-71.25,-150,-168.75,-116.25,-123.75,-90,-94.16666666666667
860,-82.5,-22.5,-63.75,-142.5,-161.25,-108.75,-112.5,-78.75,-85.83333333333333
861,-86.25,-30,-67.5,-146.25,-165,-112.5,-120,-86.25,-90.41666666666667
862,-120,-60,-71.25,-153.75,-172.5,-120,-127.5,-93.75,-102.08333333333333
863,-116.25,-45,-60,-138.75,-157.5,-108.75,-112.5,-82.5,-91.25
864,-101.25,-18.75,-52.5,-123.75,-146.25,-97.5,-101.25,-71.25,-79.16666666666667
865,-112.5,-26.25,-60,-131.25,-153.75,-105,-108.75,-78.75,-86.25
866,-123.75,-33.75,-75,-146.25,-168.75,-120,-127.5,-93.75,-98.75
867,-116.25,-26.25,-82.5,-153.75,-176.25,-123.75,-131.25,-97.5,-100.83333333333333
868,-120,-30,-78.75,-150,-168.75,-120,-123.75,-93.75,-98.33333333333333
869,-131.25,-41.25,-86.25,-153.75,-176.25,-127.5,-131.25,-101.25,-105.41666666666667
870,-127.5,-63.75,-82.5,-153.75,-176.25,-127.5,-135,-105,-107.91666666666667
871,-120,-86.25,-45,-123.75,-157.5,-112.5,-123.75,-97.5,-96.25
872,-127.5,-86.25,-15,-97.5,-146.25,-116.25,-135,-112.5,-92.91666666666667
873,-123.75,-75,18.75,-63.75,-142.5,-135,-161.25,-142.5,-91.66666666666667
874,-116.25,-90,63.75,-22.5,-142.5,-157.5,-191.25,-176.25,-92.5
875,-105,-97.5,112.5,22.5,-135,-172.5,-217.5,-202.5,-88.33333333333333
876,-93.75,-97.5,153.75,67.5,-123.75,-180,-225,-206.25,-78.33333333333333
877,-97.5,-108.75,183.75,116.25,-97.5,-168.75,-217.5,-202.5,-65.83333333333333
878,-82.5,-90,210,168.75,-56.25,-138.75,-191.25,-183.75,-40.416666666666664
879,-33.75,-11.25,243.75,243.75,11.25,-86.25,-150,-142.5,8.333333333333334
880,18.75,56.25,273.75,311.25,75,-26.25,-101.25,-97.5,56.666666666666664
881,78.75,112.5,288.75,367.5,138.75,37.5,-37.5,-41.25,105.0
882,127.5,165,288.75,393.75,183.75,93.75,18.75,15,142.91666666666666
883,176.25,198.75,281.25,431.25,232.5,157.5,90,78.75,182.91666666666666
884,255,255,270,487.5,318.75,258.75,195,180,246.66666666666666
885,333.75,367.5,243.75,525,405,367.5,311.25,292.5,316.25
886,401.25,525,206.25,536.25,483.75,483.75,435,416.25,387.5
887,476.25,678.75,142.5,532.5,566.25,607.5,573.75,555,459.1666666666667
888,566.25,836.25,116.25,585,690,765,738.75,708.75,556.25
889,607.5,997.5,108.75,648.75,825,937.5,918.75,881.25,658.3333333333334
890,641.25,1188.75,18.75,615,903.75,1095,1106.25,1080,738.75
891,712.5,1406.25,-108.75,543.75,971.25,1248.75,1297.5,1286.25,817.5
892,776.25,1533.75,-225,446.25,1005,1365,1440,1428.75,863.3333333333334
893,802.5,1563.75,-356.25,277.5,982.5,1428.75,1530,1515,860.4166666666666
894,765,1552.5,-416.25,183.75,1001.25,1507.5,1620,1593.75,867.5
895,690,1492.5,-397.5,191.25,1072.5,1586.25,1680,1616.25,881.25
896,596.25,1410,-397.5,153.75,1102.5,1623.75,1691.25,1590,863.3333333333334
897,498.75,1346.25,-416.25,67.5,1087.5,1620,1676.25,1552.5,825.8333333333334
898,401.25,1252.5,-442.5,-48.75,997.5,1526.25,1571.25,1455,745.8333333333334
899,262.5,1083.75,-435,-150,851.25,1323.75,1361.25,1260,617.5
900,116.25,896.25,-386.25,-221.25,671.25,1068.75,1095,1023.75,473.75
901,3.75,723.75,-382.5,-352.5,416.25,757.5,810,791.25,307.5
902,-97.5,551.25,-420,-525,127.5,442.5,525,570,130.41666666666666
903,-198.75,393.75,-427.5,-645,-86.25,206.25,303.75,386.25,-7.5
904,-251.25,285,-397.5,-667.5,-180,75,157.5,243.75,-81.66666666666667
905,-255,195,-375,-633.75,-206.25,3.75,52.5,120,-122.08333333333333
906,-255,108.75,-371.25,-600,-213.75,-33.75,-7.5,41.25,-147.91666666666666
907,-270,48.75,-371.25,-555,-195,-30,-18.75,18.75,-152.5
908,-266.25,26.25,-352.5,-491.25,-165,-11.25,0,26.25,-137.08333333333334
909,-247.5,22.5,-330,-450,-172.5,-18.75,-7.5,22.5,-131.25
910,-213.75,15,-311.25,-420,-195,-48.75,-26.25,7.5,-132.5
911,-172.5,26.25,-277.5,-367.5,-180,-48.75,-26.25,15,-114.58333333333333
912,-135,56.25,-247.5,-307.5,-153.75,-33.75,-18.75,22.5,-90.83333333333333
913,-105,101.25,-232.5,-255,-120,-18.75,-11.25,26.25,-68.33333333333333
914,-67.5,131.25,-206.25,-195,-78.75,3.75,7.5,33.75,-41.25
915,-45,123.75,-165,-131.25,-37.5,33.75,26.25,48.75,-16.25
916,-33.75,127.5,-123.75,-90,-15,48.75,33.75,52.5,0.0
917,-41.25,127.5,-97.5,-71.25,-7.5,45,26.25,41.25,2.5
918,-63.75,90,-90,-71.25,-15,30,11.25,22.5,-9.583333333333334
919,-60,63.75,-67.5,-60,-11.25,30,11.25,18.75,-8.333333333333334
920,-67.5,45,-48.75,-45,-3.75,33.75,11.25,22.5,-5.833333333333333
921,-82.5,26.25,-45,-45,-11.25,26.25,3.75,15,-12.5
922,-82.5,26.25,-48.75,-48.75,-22.5,15,-7.5,3.75,-18.333333333333332
923,-78.75,41.25,-52.5,-52.5,-33.75,0,-18.75,-7.5,-22.5
924,-71.25,48.75,-52.5,-48.75,-37.5,-7.5,-26.25,-11.25,-22.916666666666668
925,-60,37.5,-56.25,-56.25,-48.75,-18.75,-37.5,-22.5,-29.166666666666668
926,-41.25,33.75,-63.75,-67.5,-60,-26.25,-45,-30,-33.333333333333336
927,-41.25,41.25,-60,-63.75,-60,-26.25,-45,-30,-31.666666666666668
928,-60,48.75,-60,-63.75,-63.75,-30,-52.5,-33.75,-35.0
929,-67.5,37.5,-56.25,-63.75,-67.5,-33.75,-56.25,-33.75,-37.916666666666664
930,-71.25,11.25,-52.5,-63.75,-63.75,-33.75,-56.25,-33.75,-40.416666666666664
931,-71.25,0,-48.75,-63.75,-67.5,-33.75,-52.5,-33.75,-41.25
932,-60,-11.25,-45,-60,-63.75,-26.25,-45,-30,-37.916666666666664
933,-60,-7.5,-37.5,-56.25,-60,-26.25,-45,-30,-35.833333333333336
934,-56.25,15,-45,-60,-67.5,-37.5,-52.5,-37.5,-37.916666666666664
935,-41.25,37.5,-41.25,-48.75,-60,-26.25,-45,-26.25,-27.916666666666668
936,-26.25,41.25,-37.5,-37.5,-52.5,-22.5,-41.25,-18.75,-21.666666666666668
937,-18.75,41.25,-33.75,-33.75,-45,-18.75,-33.75,-11.25,-17.083333333333332
938,-26.25,41.25,-48.75,-48.75,-63.75,-33.75,-48.75,-26.25,-28.333333333333332
939,-41.25,33.75,-56.25,-63.75,-75,-45,-60,-37.5,-38.333333333333336
940,-45,33.75,-52.5,-56.25,-71.25,-37.5,-52.5,-33.75,-35.0
941,-45,26.25,-48.75,-56.25,-71.25,-37.5,-52.5,-30,-35.0
942,-33.75,11.25,-52.5,-56.25,-71.25,-37.5,-52.5,-30,-35.833333333333336
943,-22.5,7.5,-48.75,-56.25,-67.5,-30,-45,-22.5,-31.666666666666668
944,-45,-11.25,-48.75,-52.5,-67.5,-30,-41.25,-22.5,-35.416666666666664
945,-63.75,-22.5,-56.25,-60,-75,-37.5,-48.75,-33.75,-44.166666666666664
946,-41.25,-3.75,-45,-45,-60,-26.25,-37.5,-22.5,-31.25
947,-26.25,22.5,-33.75,-30,-48.75,-15,-30,-7.5,-18.75
948,-18.75,60,-41.25,-33.75,-52.5,-22.5,-33.75,-11.25,-17.083333333333332
949,-18.75,71.25,-56.25,-45,-63.75,-33.75,-41.25,-26.25,-23.75
950,-22.5,48.75,-63.75,-52.5,-71.25,-37.5,-48.75,-30,-30.833333333333332
951,-22.5,37.5,-56.25,-45,-67.5,-33.75,-48.75,-22.5,-28.75
952,-26.25,41.25,-48.75,-33.75,-56.25,-22.5,-33.75,-11.25,-21.25
953,-41.25,18.75,-48.75,-37.5,-52.5,-18.75,-33.75,-11.25,-25.0
954,-41.25,3.75,-56.25,-41.25,-56.25,-22.5,-33.75,-18.75,-29.583333333333332
955,-15,22.5,-48.75,-37.5,-52.5,-15,-30,-15,-21.25
956,-7.5,45,-45,-33.75,-48.75,-11.25,-26.25,-11.25,-15.416666666666666
957,-11.25,56.25,-45,-30,-45,-7.5,-22.5,-7.5,-12.5
958,-11.25,37.5,-48.75,-30,-45,-11.25,-26.25,-7.5,-15.833333333333334
959,7.5,45,-37.5,-11.25,-26.25,3.75,-7.5,7.5,-2.0833333333333335
960,18.75,78.75,-33.75,-3.75,-22.5,11.25,0,18.75,7.5
961,11.25,78.75,-45,-11.25,-30,3.75,-11.25,7.5,0.4166666666666667
962,3.75,60,-60,-26.25,-41.25,-7.5,-22.5,0,-10.416666666666666
963,3.75,56.25,-63.75,-30,-41.25,-11.25,-22.5,0,-12.083333333333334
964,7.5,63.75,-60,-18.75,-33.75,3.75,-7.5,11.25,-3.75
965,18.75,71.25,-52.5,-11.25,-22.5,11.25,0,18.75,3.75
966,26.25,75,-52.5,-15,-26.25,15,0,15,4.166666666666667
967,22.5,63.75,-56.25,-18.75,-30,11.25,0,11.25,0.4166666666666667
968,7.5,60,-48.75,-11.25,-22.5,18.75,7.5,22.5,3.75
969,-3.75,60,-41.25,0,-11.25,30,15,26.25,8.333333333333334
970,15,63.75,-45,0,-7.5,30,15,30,11.25
971,41.25,86.25,-48.75,3.75,-11.25,26.25,15,30,15.833333333333334
972,48.75,105,-52.5,7.5,-7.5,26.25,15,33.75,19.583333333333332
973,48.75,101.25,-56.25,0,-11.25,26.25,15,30,17.083333333333332
974,52.5,90,-56.25,0,-11.25,30,18.75,33.75,17.5
975,52.5,90,-56.25,3.75,-7.5,33.75,22.5,37.5,19.583333333333332
976,37.5,90,-60,3.75,-7.5,33.75,22.5,41.25,17.916666666666668
977,37.5,82.5,-60,7.5,-3.75,33.75,26.25,41.25,18.333333333333332
978,82.5,97.5,-56.25,7.5,-3.75,37.5,30,45,26.666666666666668
979,112.5,127.5,-52.5,11.25,3.75,45,33.75,48.75,36.666666666666664
980,82.5,116.25,-52.5,15,7.5,48.75,41.25,52.5,34.583333333333336
981,41.25,75,-63.75,7.5,0,41.25,33.75,45,20.0
982,37.5,71.25,-67.5,3.75,-3.75,37.5,26.25,41.25,16.25
983,63.75,105,-63.75,15,3.75,41.25,33.75,48.75,27.5
984,75,123.75,-60,22.5,15,48.75,41.25,56.25,35.833333333333336
985,45,93.75,-71.25,11.25,3.75,41.25,33.75,48.75,22.916666666666668
986,37.5,71.25,-82.5,0,-7.5,30,26.25,41.25,12.916666666666666
987,63.75,90,-82.5,7.5,0,41.25,33.75,48.75,22.5
988,56.25,82.5,-86.25,3.75,-3.75,37.5,30,52.5,19.166666666666668
989,67.5,86.25,-82.5,7.5,0,41.25,37.5,60,24.166666666666668
990,108.75,116.25,-71.25,18.75,15,56.25,52.5,71.25,40.833333333333336
991,116.25,127.5,-71.25,15,15,56.25,52.5,71.25,42.5
992,93.75,127.5,-71.25,18.75,15,60,52.5,71.25,40.833333333333336
993,90,131.25,-67.5,22.5,18.75,63.75,60,78.75,44.166666666666664
994,93.75,135,-67.5,26.25,22.5,67.5,63.75,82.5,47.083333333333336
995,112.5,150,-67.5,30,30,71.25,67.5,90,53.75
996,142.5,161.25,-67.5,33.75,30,71.25,71.25,93.75,59.583333333333336
997,153.75,153.75,-75,30,18.75,63.75,63.75,90,55.416666666666664
998,138.75,135,-78.75,26.25,18.75,63.75,63.75,90,50.833333333333336
999,127.5,135,-82.5,22.5,18.75,63.75,63.75,90,48.75
1000,138.75,157.5,-86.25,18.75,15,63.75,63.75,90,51.25
1001,153.75,168.75,-86.25,18.75,15,63.75,63.75,93.75,54.583333333333336
1002,157.5,165,-90,15,11.25,63.75,63.75,93.75,53.333333333333336
1003,142.5,161.25,-90,15,7.5,67.5,67.5,93.75,51.666666666666664
1004,131.25,157.5,-90,15,7.5,67.5,67.5,93.75,50.0
1005,142.5,165,-90,15,3.75,60,67.5,93.75,50.833333333333336
1006,153.75,172.5,-86.25,22.5,11.25,67.5,71.25,101.25,57.083333333333336
1007,161.25,180,-86.25,26.25,15,71.25,75,108.75,61.25
1008,165,187.5,-97.5,22.5,7.5,63.75,67.5,101.25,57.5
1009,165,176.25,-101.25,15,0,52.5,63.75,97.5,52.083333333333336
1010,168.75,172.5,-97.5,15,0,56.25,63.75,101.25,53.333333333333336
1011,157.5,168.75,-97.5,15,-3.75,56.25,63.75,105,51.666666666666664
1012,146.25,161.25,-105,7.5,-11.25,48.75,56.25,97.5,44.583333333333336
1013,146.25,135,-97.5,11.25,-7.5,52.5,63.75,101.25,45.0
1014,153.75,120,-97.5,11.25,-3.75,56.25,67.5,101.25,45.416666666666664
1015,168.75,172.5,-97.5,11.25,-7.5,52.5,63.75,101.25,51.666666666666664
1016,172.5,210,-101.25,0,-18.75,41.25,52.5,90,49.583333333333336
1017,168.75,202.5,-97.5,3.75,-18.75,41.25,52.5,93.75,49.583333333333336
1018,165,206.25,-90,11.25,-11.25,48.75,60,105,55.0
1019,180,221.25,-86.25,18.75,-7.5,52.5,63.75,108.75,61.25
1020,191.25,228.75,-90,18.75,-7.5,48.75,63.75,108.75,62.5
1021,161.25,206.25,-101.25,7.5,-22.5,33.75,48.75,97.5,47.916666666666664
1022,157.5,180,-105,0,-30,26.25,48.75,93.75,41.25
1023,180,176.25,-90,15,-15,41.25,63.75,108.75,53.333333333333336
1024,172.5,183.75,-78.75,22.5,-11.25,45,63.75,116.25,57.083333333333336
1025,157.5,195,-86.25,11.25,-22.5,33.75,52.5,105,49.583333333333336
1026,165,191.25,-82.5,11.25,-22.5,37.5,56.25,101.25,50.833333333333336
1027,172.5,187.5,-71.25,18.75,-15,45,63.75,108.75,56.666666666666664
1028,168.75,195,-71.25,15,-18.75,41.25,67.5,108.75,56.25
1029,165,195,-75,15,-22.5,30,56.25,101.25,51.666666666666664
1030,150,176.25,-75,11.25,-30,18.75,37.5,90,42.083333333333336
1031,153.75,180,-67.5,15,-30,15,30,86.25,42.5
1032,157.5,195,-63.75,22.5,-30,15,30,82.5,45.416666666666664
1033,153.75,187.5,-63.75,18.75,-33.75,15,26.25,75,42.083333333333336
1034,123.75,153.75,-71.25,11.25,-41.25,7.5,22.5,63.75,30.0
1035,82.5,123.75,-75,3.75,-48.75,0,11.25,52.5,16.666666666666668
1036,71.25,120,-63.75,11.25,-45,3.75,15,56.25,18.75
1037,86.25,127.5,-56.25,11.25,-41.25,3.75,15,56.25,22.5
1038,82.5,127.5,-56.25,7.5,-45,0,7.5,48.75,19.166666666666668
1039,67.5,116.25,-56.25,0,-52.5,-3.75,0,41.25,12.5
1040,60,112.5,-52.5,3.75,-52.5,-3.75,0,37.5,11.666666666666666
1041,60,105,-41.25,7.5,-48.75,-3.75,0,37.5,12.916666666666666
1042,71.25,108.75,-33.75,15,-41.25,3.75,3.75,37.5,18.333333333333332
1043,75,131.25,-26.25,22.5,-37.5,3.75,3.75,41.25,23.75
1044,41.25,120,-30,18.75,-41.25,-7.5,-7.5,33.75,14.166666666666666
1045,30,97.5,-41.25,3.75,-56.25,-22.5,-22.5,15,0.4166666666666667
1046,45,105,-37.5,0,-56.25,-26.25,-26.25,15,2.0833333333333335
1047,45,116.25,-33.75,3.75,-52.5,-22.5,-26.25,15,5.0
1048,26.25,101.25,-37.5,-3.75,-60,-30,-33.75,3.75,-3.75
1049,7.5,67.5,-41.25,-15,-67.5,-41.25,-45,-7.5,-15.833333333333334
1050,15,75,-30,-11.25,-63.75,-33.75,-37.5,0,-9.583333333333334
1051,26.25,93.75,-22.5,-7.5,-60,-22.5,-30,3.75,-2.0833333333333335
1052,0,75,-22.5,-11.25,-60,-26.25,-30,-3.75,-8.75
1053,-22.5,56.25,-26.25,-18.75,-63.75,-30,-37.5,-11.25,-17.083333333333332
1054,-33.75,48.75,-22.5,-18.75,-67.5,-33.75,-37.5,-11.25,-19.583333333333332
1055,-22.5,63.75,-15,-11.25,-60,-30,-33.75,-3.75,-12.5
1056,3.75,86.25,-11.25,-7.5,-56.25,-26.25,-33.75,-3.75,-5.416666666666667
1057,-3.75,78.75,-26.25,-18.75,-71.25,-37.5,-41.25,-15,-15.0
1058,-26.25,60,-30,-30,-78.75,-45,-48.75,-22.5,-24.583333333333332
1059,-33.75,48.75,-33.75,-37.5,-86.25,-52.5,-60,-30,-31.666666666666668
1060,-52.5,37.5,-33.75,-41.25,-86.25,-56.25,-63.75,-33.75,-36.666666666666664
1061,-63.75,37.5,-37.5,-45,-90,-56.25,-63.75,-37.5,-39.583333333333336
1062,-63.75,41.25,-37.5,-52.5,-93.75,-60,-67.5,-41.25,-41.666666666666664
1063,-71.25,22.5,-48.75,-71.25,-108.75,-71.25,-78.75,-52.5,-53.333333333333336
1064,-90,15,-41.25,-63.75,-105,-71.25,-78.75,-52.5,-54.166666666666664
1065,-108.75,7.5,-30,-52.5,-93.75,-60,-71.25,-45,-50.416666666666664
1066,-93.75,3.75,-30,-56.25,-97.5,-60,-71.25,-45,-50.0
1067,-63.75,30,-26.25,-52.5,-97.5,-63.75,-71.25,-48.75,-43.75
1068,-48.75,41.25,-30,-52.5,-97.5,-71.25,-82.5,-52.5,-43.75
1069,-75,7.5,-37.5,-63.75,-105,-78.75,-86.25,-56.25,-55.0
1070,-82.5,0,-45,-75,-112.5,-82.5,-90,-60,-60.833333333333336
1071,-78.75,11.25,-45,-75,-116.25,-82.5,-86.25,-56.25,-58.75
1072,-75,11.25,-41.25,-78.75,-116.25,-78.75,-82.5,-52.5,-57.083333333333336
1073,-82.5,-7.5,-37.5,-75,-112.5,-71.25,-78.75,-48.75,-57.083333333333336
1074,-90,0,-41.25,-78.75,-112.5,-75,-78.75,-52.5,-58.75
1075,-78.75,22.5,-41.25,-82.5,-120,-75,-82.5,-56.25,-57.083333333333336
1076,-67.5,26.25,-41.25,-82.5,-120,-75,-82.5,-60,-55.833333333333336
1077,-82.5,11.25,-37.5,-82.5,-116.25,-75,-78.75,-56.25,-57.5
1078,-86.25,7.5,-30,-71.25,-108.75,-67.5,-71.25,-45,-52.5
1079,-82.5,11.25,-26.25,-63.75,-101.25,-63.75,-67.5,-41.25,-48.333333333333336
1080,-90,7.5,-33.75,-67.5,-108.75,-67.5,-75,-48.75,-53.75
1081,-101.25,-7.5,-52.5,-86.25,-123.75,-82.5,-90,-60,-67.08333333333333
1082,-78.75,7.5,-52.5,-90,-123.75,-86.25,-93.75,-63.75,-64.58333333333333
1083,-75,22.5,-48.75,-86.25,-120,-82.5,-90,-63.75,-60.416666666666664
1084,-75,15,-41.25,-78.75,-116.25,-75,-86.25,-60,-57.5
1085,-71.25,11.25,-41.25,-82.5,-116.25,-75,-86.25,-60,-57.916666666666664
1086,-101.25,0,-45,-86.25,-116.25,-75,-82.5,-60,-62.916666666666664
1087,-112.5,-3.75,-45,-86.25,-120,-75,-82.5,-60,-65.0
1088,-97.5,7.5,-33.75,-75,-105,-63.75,-71.25,-48.75,-54.166666666666664
1089,-101.25,11.25,-33.75,-75,-105,-63.75,-75,-52.5,-55.0
1090,-105,26.25,-48.75,-82.5,-116.25,-78.75,-90,-63.75,-62.083333333333336
1091,-93.75,37.5,-45,-75,-112.5,-71.25,-82.5,-60,-55.833333333333336
1092,-101.25,22.5,-41.25,-71.25,-105,-71.25,-82.5,-56.25,-56.25
1093,-105,15,-52.5,-82.5,-116.25,-82.5,-93.75,-67.5,-65.0
1094,-90,15,-60,-86.25,-120,-86.25,-93.75,-71.25,-65.83333333333333
1095,-82.5,18.75,-48.75,-71.25,-108.75,-71.25,-82.5,-56.25,-55.833333333333336
1096,-82.5,33.75,-48.75,-71.25,-108.75,-71.25,-82.5,-56.25,-54.166666666666664
1097,-86.25,33.75,-56.25,-78.75,-112.5,-78.75,-90,-60,-58.75
1098,-78.75,30,-52.5,-82.5,-116.25,-75,-86.25,-60,-57.916666666666664
1099,-75,33.75,-56.25,-86.25,-116.25,-75,-86.25,-67.5,-58.75
1100,-86.25,33.75,-52.5,-78.75,-108.75,-71.25,-82.5,-60,-56.25
1101,-90,33.75,-37.5,-67.5,-101.25,-60,-71.25,-48.75,-49.166666666666664
1102,-93.75,37.5,-33.75,-63.75,-97.5,-60,-71.25,-48.75,-47.916666666666664
1103,-78.75,45,-33.75,-56.25,-93.75,-56.25,-67.5,-45,-42.916666666666664
1104,-60,56.25,-30,-52.5,-90,-52.5,-63.75,-41.25,-37.083333333333336
1105,-75,45,-41.25,-60,-97.5,-60,-71.25,-48.75,-45.416666666666664
1106,-101.25,15,-52.5,-75,-108.75,-71.25,-82.5,-56.25,-59.166666666666664
1107,-82.5,18.75,-52.5,-71.25,-105,-67.5,-78.75,-52.5,-54.583333333333336
1108,-63.75,30,-45,-67.5,-101.25,-60,-75,-48.75,-47.916666666666664
1109,-60,37.5,-41.25,-63.75,-93.75,-56.25,-67.5,-45,-43.333333333333336
1110,-75,33.75,-41.25,-63.75,-93.75,-52.5,-63.75,-41.25,-44.166666666666664
1111,-86.25,22.5,-41.25,-67.5,-93.75,-52.5,-67.5,-45,-47.916666666666664
1112,-97.5,15,-45,-67.5,-97.5,-56.25,-71.25,-48.75,-52.083333333333336
1113,-86.25,22.5,-48.75,-71.25,-101.25,-60,-71.25,-48.75,-51.666666666666664
1114,-90,26.25,-45,-63.75,-93.75,-52.5,-67.5,-41.25,-47.5
1115,-105,18.75,-41.25,-56.25,-90,-52.5,-63.75,-41.25,-47.916666666666664
1116,-71.25,33.75,-45,-60,-90,-56.25,-67.5,-45,-44.583333333333336
1117,-60,33.75,-52.5,-67.5,-97.5,-63.75,-75,-52.5,-48.333333333333336
1118,-82.5,18.75,-48.75,-67.5,-97.5,-63.75,-75,-52.5,-52.083333333333336
1119,-75,37.5,-45,-63.75,-93.75,-56.25,-71.25,-45,-45.833333333333336
1120,-52.5,52.5,-45,-63.75,-93.75,-60,-71.25,-45,-42.083333333333336
1121,-63.75,33.75,-52.5,-71.25,-101.25,-67.5,-78.75,-56.25,-50.833333333333336
1122,-82.5,18.75,-52.5,-75,-105,-67.5,-78.75,-56.25,-55.416666666666664
1123,-75,22.5,-48.75,-78.75,-101.25,-63.75,-75,-52.5,-52.5
1124,-52.5,41.25,-41.25,-67.5,-93.75,-52.5,-63.75,-41.25,-41.25
1125,-60,48.75,-30,-56.25,-82.5,-45,-52.5,-33.75,-34.583333333333336
1126,-75,45,-33.75,-52.5,-82.5,-45,-52.5,-37.5,-37.083333333333336
1127,-63.75,52.5,-33.75,-48.75,-78.75,-45,-52.5,-33.75,-33.75
1128,-67.5,45,-41.25,-52.5,-82.5,-48.75,-60,-41.25,-38.75
1129,-101.25,11.25,-52.5,-67.5,-97.5,-63.75,-71.25,-52.5,-55.0
1130,-127.5,-22.5,-67.5,-82.5,-112.5,-75,-86.25,-63.75,-70.83333333333333
1131,-123.75,-26.25,-71.25,-86.25,-116.25,-78.75,-90,-67.5,-73.33333333333333
1132,-108.75,-15,-63.75,-78.75,-108.75,-75,-82.5,-60,-65.83333333333333
1133,-86.25,11.25,-60,-75,-105,-67.5,-75,-52.5,-56.666666666666664
1134,-71.25,33.75,-52.5,-71.25,-97.5,-60,-67.5,-48.75,-48.333333333333336
1135,-82.5,22.5,-52.5,-75,-97.5,-60,-67.5,-48.75,-51.25
1136,-93.75,3.75,-52.5,-75,-97.5,-60,-67.5,-52.5,-55.0
1137,-90,18.75,-48.75,-71.25,-97.5,-56.25,-67.5,-48.75,-51.25
1138,-82.5,33.75,-48.75,-67.5,-93.75,-56.25,-63.75,-48.75,-47.5
1139,-71.25,41.25,-41.25,-56.25,-86.25,-52.5,-60,-41.25,-40.833333333333336
1140,-63.75,33.75,-45,-56.25,-86.25,-52.5,-63.75,-41.25,-41.666666666666664
1141,-67.5,22.5,-52.5,-67.5,-93.75,-60,-67.5,-48.75,-48.333333333333336
1142,-71.25,18.75,-56.25,-67.5,-97.5,-63.75,-67.5,-45,-50.0
1143,-63.75,18.75,-48.75,-60,-90,-52.5,-56.25,-37.5,-43.333333333333336
1144,-67.5,18.75,-48.75,-63.75,-90,-56.25,-56.25,-41.25,-45.0
1145,-78.75,18.75,-52.5,-71.25,-97.5,-60,-63.75,-45,-50.0
1146,-56.25,30,-63.75,-86.25,-112.5,-71.25,-78.75,-60,-55.416666666666664
1147,-52.5,48.75,-67.5,-90,-112.5,-75,-78.75,-63.75,-54.583333333333336
1148,-67.5,52.5,-52.5,-82.5,-101.25,-63.75,-67.5,-52.5,-48.333333333333336
1149,-71.25,30,-60,-86.25,-108.75,-71.25,-75,-56.25,-55.416666666666664
1150,-90,7.5,-63.75,-86.25,-108.75,-75,-78.75,-60,-61.666666666666664
1151,-108.75,3.75,-60,-78.75,-105,-71.25,-75,-56.25,-61.25
1152,-112.5,-3.75,-63.75,-82.5,-108.75,-75,-78.75,-60,-65.0
1153,-108.75,-7.5,-63.75,-86.25,-108.75,-78.75,-78.75,-63.75,-66.25
1154,-93.75,-3.75,-60,-82.5,-105,-75,-75,-56.25,-61.25
1155,-90,7.5,-60,-78.75,-105,-71.25,-75,-52.5,-58.333333333333336
1156,-93.75,-3.75,-75,-93.75,-123.75,-86.25,-86.25,-67.5,-70.0
1157,-71.25,-7.5,-71.25,-97.5,-120,-86.25,-82.5,-67.5,-67.08333333333333
1158,-56.25,22.5,-63.75,-90,-112.5,-75,-75,-60,-56.666666666666664
1159,-75,30,-67.5,-97.5,-120,-78.75,-78.75,-63.75,-61.25
1160,-101.25,7.5,-75,-105,-127.5,-90,-90,-75,-72.91666666666667
1161,-93.75,7.5,-71.25,-101.25,-123.75,-86.25,-90,-71.25,-70.0
1162,-75,30,-60,-86.25,-112.5,-75,-75,-56.25,-56.666666666666664
1163,-71.25,33.75,-60,-82.5,-108.75,-75,-75,-56.25,-55.0
1164,-78.75,22.5,-63.75,-86.25,-112.5,-78.75,-82.5,-60,-60.0
1165,-75,15,-71.25,-93.75,-120,-86.25,-86.25,-67.5,-65.0
1166,-86.25,7.5,-71.25,-93.75,-123.75,-86.25,-86.25,-63.75,-67.08333333333333
1167,-90,11.25,-67.5,-93.75,-120,-86.25,-82.5,-63.75,-65.83333333333333
1168,-78.75,22.5,-67.5,-93.75,-120,-82.5,-82.5,-63.75,-62.916666666666664
1169,-78.75,18.75,-71.25,-101.25,-123.75,-86.25,-86.25,-67.5,-66.25
1170,-86.25,3.75,-67.5,-101.25,-123.75,-82.5,-82.5,-63.75,-67.08333333333333
1171,-82.5,0,-67.5,-105,-123.75,-82.5,-82.5,-63.75,-67.5
1172,-86.25,3.75,-71.25,-105,-123.75,-82.5,-86.25,-67.5,-68.75
1173,-105,-3.75,-71.25,-105,-127.5,-86.25,-86.25,-71.25,-72.91666666666667
1174,-93.75,7.5,-67.5,-101.25,-123.75,-86.25,-86.25,-67.5,-68.75
1175,-78.75,30,-60,-90,-112.5,-78.75,-78.75,-60,-58.75
1176,-78.75,22.5,-60,-90,-116.25,-78.75,-78.75,-60,-60.0
1177,-105,-11.25,-78.75,-108.75,-127.5,-93.75,-93.75,-75,-77.08333333333333
1178,-131.25,-30,-82.5,-112.5,-135,-97.5,-101.25,-78.75,-85.41666666666667
1179,-101.25,-7.5,-78.75,-112.5,-131.25,-93.75,-97.5,-75,-77.5
1180,-90,3.75,-71.25,-105,-123.75,-86.25,-90,-67.5,-70.0
1181,-112.5,-26.25,-78.75,-116.25,-131.25,-97.5,-97.5,-75,-81.66666666666667
1182,-123.75,-45,-90,-127.5,-142.5,-105,-108.75,-86.25,-92.08333333333333
1183,-105,-18.75,-75,-116.25,-131.25,-90,-93.75,-75,-78.33333333333333
1184,-90,3.75,-67.5,-108.75,-123.75,-86.25,-90,-67.5,-70.0
1185,-93.75,0,-67.5,-108.75,-123.75,-86.25,-90,-67.5,-70.83333333333333
1186,-90,0,-63.75,-105,-123.75,-82.5,-90,-67.5,-69.16666666666667
1187,-90,7.5,-63.75,-101.25,-120,-82.5,-86.25,-63.75,-66.66666666666667
1188,-97.5,3.75,-67.5,-101.25,-123.75,-90,-90,-67.5,-70.41666666666667
1189,-90,0,-71.25,-108.75,-127.5,-93.75,-97.5,-75,-73.75
1190,-93.75,0,-71.25,-108.75,-127.5,-90,-93.75,-71.25,-72.91666666666667
1191,-93.75,0,-71.25,-108.75,-127.5,-90,-97.5,-71.25,-73.33333333333333
1192,-82.5,-3.75,-78.75,-116.25,-135,-97.5,-105,-78.75,-77.5
1193,-86.25,-11.25,-78.75,-120,-138.75,-101.25,-105,-82.5,-80.41666666666667
1194,-90,-11.25,-78.75,-120,-138.75,-101.25,-105,-82.5,-80.83333333333333
1195,-86.25,0,-78.75,-123.75,-138.75,-101.25,-105,-82.5,-79.58333333333333
1196,-82.5,3.75,-67.5,-116.25,-131.25,-90,-93.75,-75,-72.5
1197,-86.25,3.75,-63.75,-112.5,-123.75,-90,-93.75,-75,-71.25
1198,-78.75,18.75,-60,-101.25,-116.25,-78.75,-86.25,-67.5,-63.333333333333336
1199,-63.75,30,-60,-97.5,-112.5,-78.75,-82.5,-63.75,-58.75
1200,-48.75,30,-71.25,-105,-123.75,-93.75,-93.75,-71.25,-64.16666666666667
1201,-52.5,22.5,-75,-112.5,-131.25,-97.5,-97.5,-75,-68.75
1202,-93.75,-11.25,-82.5,-120,-135,-105,-105,-82.5,-81.66666666666667
1203,-135,-52.5,-93.75,-131.25,-150,-116.25,-116.25,-93.75,-98.75
1204,-138.75,-60,-90,-131.25,-150,-116.25,-116.25,-93.75,-99.58333333333333
1205,-127.5,-45,-86.25,-127.5,-142.5,-108.75,-112.5,-90,-93.33333333333333
1206,-120,-37.5,-86.25,-127.5,-142.5,-108.75,-112.5,-90,-91.66666666666667
1207,-116.25,-30,-82.5,-127.5,-142.5,-108.75,-108.75,-90,-89.58333333333333
1208,-120,-15,-75,-123.75,-135,-101.25,-105,-86.25,-84.58333333333333
1209,-112.5,0,-63.75,-108.75,-123.75,-90,-93.75,-75,-74.16666666666667
1210,-131.25,-26.25,-63.75,-108.75,-123.75,-93.75,-97.5,-78.75,-80.41666666666667
1211,-127.5,-37.5,-75,-116.25,-131.25,-105,-108.75,-90,-87.91666666666667
1212,-93.75,-18.75,-78.75,-116.25,-135,-108.75,-108.75,-90,-83.33333333333333
1213,-78.75,-3.75,-78.75,-116.25,-135,-108.75,-105,-86.25,-79.16666666666667
1214,-82.5,-7.5,-71.25,-108.75,-127.5,-97.5,-97.5,-75,-74.16666666666667
1215,-97.5,-18.75,-71.25,-112.5,-127.5,-97.5,-97.5,-75,-77.5
1216,-105,-18.75,-71.25,-112.5,-127.5,-97.5,-97.5,-78.75,-78.75
1217,-93.75,-22.5,-71.25,-116.25,-131.25,-101.25,-101.25,-86.25,-80.41666666666667
1218,-86.25,-26.25,-75,-120,-131.25,-101.25,-105,-86.25,-81.25
1219,-86.25,-18.75,-67.5,-116.25,-127.5,-97.5,-101.25,-82.5,-77.5
1220,-93.75,-3.75,-67.5,-112.5,-123.75,-93.75,-97.5,-82.5,-75.0
1221,-101.25,7.5,-63.75,-105,-120,-90,-93.75,-78.75,-71.66666666666667
1222,-97.5,11.25,-60,-101.25,-116.25,-86.25,-90,-71.25,-67.91666666666667
1223,-82.5,0,-52.5,-90,-105,-75,-78.75,-60,-60.416666666666664
1224,-75,-11.25,-48.75,-86.25,-105,-75,-78.75,-60,-60.0
1225,-78.75,11.25,-52.5,-90,-108.75,-78.75,-82.5,-63.75,-60.416666666666664
1226,-75,37.5,-63.75,-97.5,-112.5,-86.25,-90,-71.25,-62.083333333333336
1227,-67.5,48.75,-60,-93.75,-108.75,-78.75,-82.5,-63.75,-56.25
1228,-56.25,52.5,-45,-82.5,-97.5,-67.5,-71.25,-52.5,-46.666666666666664
1229,-45,52.5,-41.25,-78.75,-93.75,-63.75,-71.25,-52.5,-43.75
1230,-41.25,52.5,-30,-75,-90,-56.25,-63.75,-45,-38.75
1231,-56.25,48.75,-30,-75,-90,-56.25,-63.75,-48.75,-41.25
1232,-97.5,22.5,-33.75,-82.5,-97.5,-63.75,-71.25,-60,-53.75
1233,-116.25,7.5,-30,-82.5,-97.5,-67.5,-78.75,-63.75,-58.75
1234,-116.25,11.25,-18.75,-67.5,-90,-60,-71.25,-56.25,-52.083333333333336
1235,-123.75,7.5,-18.75,-63.75,-90,-63.75,-75,-60,-54.166666666666664
1236,-101.25,18.75,-18.75,-60,-90,-63.75,-75,-60,-50.0
1237,-67.5,41.25,-11.25,-52.5,-78.75,-60,-67.5,-52.5,-38.75
1238,-52.5,45,-15,-56.25,-78.75,-56.25,-67.5,-52.5,-37.083333333333336
1239,-63.75,33.75,-18.75,-52.5,-78.75,-56.25,-67.5,-52.5,-39.583333333333336
1240,-78.75,33.75,-7.5,-45,-71.25,-48.75,-63.75,-45,-36.25
1241,-93.75,33.75,0,-41.25,-67.5,-45,-60,-45,-35.416666666666664
1242,-90,33.75,3.75,-41.25,-67.5,-45,-60,-45,-34.583333333333336
1243,-78.75,45,7.5,-37.5,-63.75,-37.5,-52.5,-37.5,-28.333333333333332
1244,-63.75,60,7.5,-33.75,-60,-33.75,-48.75,-33.75,-22.916666666666668
1245,-67.5,60,0,-37.5,-63.75,-37.5,-52.5,-37.5,-26.25
1246,-78.75,60,-7.5,-41.25,-63.75,-37.5,-52.5,-33.75,-28.333333333333332
1247,-60,82.5,-11.25,-33.75,-52.5,-30,-41.25,-22.5,-18.75
1248,-41.25,97.5,-18.75,-30,-48.75,-22.5,-37.5,-18.75,-13.333333333333334
1249,-33.75,93.75,-37.5,-41.25,-56.25,-26.25,-41.25,-18.75,-17.916666666666668
1250,-26.25,86.25,-56.25,-52.5,-60,-33.75,-45,-22.5,-23.333333333333332
1251,-18.75,78.75,-71.25,-60,-67.5,-37.5,-45,-26.25,-27.5
1252,-18.75,71.25,-71.25,-63.75,-71.25,-37.5,-45,-26.25,-29.166666666666668
1253,-22.5,63.75,-71.25,-67.5,-71.25,-37.5,-48.75,-30,-31.666666666666668
1254,-18.75,63.75,-75,-75,-75,-41.25,-52.5,-26.25,-33.333333333333336
1255,-18.75,67.5,-82.5,-86.25,-82.5,-45,-56.25,-30,-37.083333333333336
1256,-37.5,52.5,-93.75,-93.75,-93.75,-52.5,-63.75,-37.5,-46.666666666666664
1257,-60,37.5,-93.75,-101.25,-101.25,-60,-67.5,-45,-54.583333333333336
1258,-67.5,33.75,-86.25,-97.5,-97.5,-60,-67.5,-45,-54.166666666666664
1259,-45,48.75,-82.5,-93.75,-97.5,-60,-71.25,-41.25,-49.166666666666664
1260,-26.25,48.75,-90,-101.25,-105,-71.25,-78.75,-48.75,-52.5
1261,-30,37.5,-97.5,-108.75,-112.5,-78.75,-86.25,-56.25,-59.166666666666664
1262,-48.75,37.5,-90,-101.25,-105,-71.25,-82.5,-52.5,-57.083333333333336
1263,-41.25,48.75,-78.75,-90,-97.5,-63.75,-75,-48.75,-49.583333333333336
1264,-26.25,37.5,-78.75,-93.75,-97.5,-63.75,-75,-48.75,-49.583333333333336
1265,-33.75,22.5,-78.75,-97.5,-101.25,-67.5,-78.75,-52.5,-54.166666666666664
1266,-33.75,30,-78.75,-101.25,-105,-67.5,-82.5,-52.5,-54.583333333333336
1267,-48.75,30,-67.5,-93.75,-97.5,-60,-75,-48.75,-51.25
1268,-78.75,15,-63.75,-93.75,-97.5,-60,-75,-52.5,-56.25
1269,-90,-7.5,-71.25,-101.25,-108.75,-71.25,-86.25,-63.75,-66.66666666666667
1270,-71.25,0,-71.25,-101.25,-108.75,-71.25,-86.25,-63.75,-63.75
1271,-63.75,22.5,-67.5,-93.75,-105,-71.25,-82.5,-60,-57.916666666666664
1272,-90,3.75,-71.25,-97.5,-112.5,-78.75,-90,-67.5,-67.08333333333333
1273,-93.75,-7.5,-71.25,-105,-116.25,-86.25,-97.5,-71.25,-72.08333333333333
1274,-78.75,3.75,-75,-112.5,-123.75,-90,-105,-78.75,-73.33333333333333
1275,-67.5,3.75,-82.5,-116.25,-135,-101.25,-112.5,-86.25,-77.5
1276,-90,-22.5,-86.25,-123.75,-142.5,-105,-120,-93.75,-87.08333333333333
1277,-97.5,-30,-86.25,-131.25,-146.25,-108.75,-123.75,-97.5,-91.25
1278,-93.75,-33.75,-82.5,-127.5,-142.5,-105,-120,-93.75,-88.75
1279,-101.25,-37.5,-78.75,-123.75,-135,-97.5,-116.25,-93.75,-87.08333333333333
1280,-120,-37.5,-78.75,-123.75,-135,-101.25,-123.75,-97.5,-90.83333333333333
1281,-108.75,-33.75,-82.5,-127.5,-142.5,-108.75,-123.75,-101.25,-92.08333333333333
1282,-97.5,-33.75,-75,-116.25,-131.25,-97.5,-112.5,-90,-83.75
1283,-93.75,-37.5,-71.25,-105,-120,-90,-105,-82.5,-78.33333333333333
1284,-97.5,-37.5,-75,-112.5,-131.25,-101.25,-116.25,-90,-84.58333333333333
1285,-105,-30,-90,-127.5,-142.5,-112.5,-127.5,-97.5,-92.5
1286,-105,-37.5,-90,-123.75,-138.75,-105,-120,-93.75,-90.41666666666667
1287,-108.75,-52.5,-82.5,-116.25,-131.25,-101.25,-112.5,-90,-88.33333333333333
1288,-131.25,-63.75,-86.25,-123.75,-138.75,-108.75,-123.75,-101.25,-97.5
1289,-123.75,-56.25,-90,-131.25,-146.25,-112.5,-127.5,-105,-99.16666666666667
1290,-105,-45,-86.25,-135,-146.25,-112.5,-131.25,-105,-96.25
1291,-105,-37.5,-82.5,-127.5,-142.5,-108.75,-127.5,-101.25,-92.5
1292,-108.75,-37.5,-71.25,-116.25,-131.25,-97.5,-116.25,-93.75,-85.83333333333333
1293,-112.5,-41.25,-67.5,-112.5,-127.5,-93.75,-112.5,-90,-84.16666666666667
1294,-101.25,-30,-71.25,-112.5,-127.5,-93.75,-112.5,-90,-82.08333333333333
1295,-90,-11.25,-63.75,-101.25,-120,-86.25,-105,-82.5,-73.33333333333333
1296,-97.5,-18.75,-67.5,-105,-127.5,-93.75,-112.5,-86.25,-78.75
1297,-108.75,-33.75,-75,-112.5,-131.25,-97.5,-116.25,-93.75,-85.41666666666667
1298,-105,-30,-67.5,-105,-120,-86.25,-105,-82.5,-77.91666666666667
1299,-108.75,-41.25,-71.25,-108.75,-127.5,-93.75,-112.5,-90,-83.75
1300,-108.75,-48.75,-75,-116.25,-138.75,-108.75,-127.5,-105,-92.08333333333333
1301,-101.25,-52.5,-71.25,-112.5,-138.75,-116.25,-138.75,-116.25,-94.16666666666667
1302,-93.75,-63.75,-41.25,-82.5,-131.25,-116.25,-146.25,-131.25,-89.58333333333333
1303,-108.75,-86.25,11.25,-33.75,-112.5,-120,-157.5,-146.25,-83.75
1304,-123.75,-112.5,56.25,7.5,-108.75,-138.75,-187.5,-180,-87.5
1305,-112.5,-120,108.75,56.25,-97.5,-150,-206.25,-202.5,-80.41666666666667
1306,-101.25,-105,157.5,108.75,-75,-146.25,-210,-206.25,-64.16666666666667
1307,-78.75,-86.25,180,150,-56.25,-138.75,-210,-206.25,-49.583333333333336
1308,-60,-52.5,206.25,213.75,-7.5,-108.75,-183.75,-183.75,-19.583333333333332
1309,-48.75,-11.25,240,288.75,60,-52.5,-135,-138.75,22.5
1310,-18.75,22.5,255,345,116.25,-3.75,-90,-97.5,58.75
1311,67.5,90,270,397.5,172.5,56.25,-30,-48.75,108.33333333333333
1312,142.5,157.5,262.5,423.75,213.75,108.75,22.5,3.75,148.33333333333334
1313,198.75,221.25,255,457.5,266.25,176.25,93.75,75,193.75
1314,281.25,315,247.5,517.5,356.25,277.5,202.5,180,264.1666666666667
1315,360,431.25,228.75,558.75,442.5,386.25,318.75,292.5,335.4166666666667
1316,420,547.5,195,573.75,521.25,502.5,442.5,416.25,402.0833333333333
1317,506.25,678.75,135,562.5,592.5,618.75,573.75,547.5,468.3333333333333
1318,592.5,858.75,123.75,622.5,723.75,787.5,750,720,575.4166666666666
1319,641.25,1050,120,697.5,862.5,960,933.75,900,685.0
1320,675,1241.25,37.5,667.5,941.25,1110,1117.5,1091.25,764.5833333333334
1321,720,1417.5,-90,596.25,1001.25,1260,1305,1290,833.3333333333334
1322,780,1492.5,-217.5,498.75,1027.5,1365,1436.25,1421.25,867.0833333333334
1323,817.5,1530,-333.75,352.5,1012.5,1432.5,1533.75,1518.75,873.75
1324,813.75,1563.75,-386.25,266.25,1035,1511.25,1620,1597.5,891.25
1325,723.75,1488.75,-363.75,277.5,1098.75,1582.5,1665,1605,897.5
1326,600,1380,-356.25,255,1136.25,1627.5,1683.75,1582.5,878.75
1327,487.5,1305,-390,146.25,1102.5,1612.5,1653.75,1541.25,828.75
1328,405,1211.25,-420,11.25,1001.25,1503.75,1545,1432.5,743.3333333333334
1329,300,1057.5,-397.5,-93.75,855,1312.5,1346.25,1248.75,625.4166666666666
1330,142.5,873.75,-341.25,-168.75,682.5,1065,1087.5,1020,484.5833333333333
1331,-7.5,697.5,-322.5,-285,442.5,768.75,806.25,787.5,320.8333333333333
1332,-105,540,-348.75,-435,180,468.75,528.75,570,155.41666666666666
1333,-183.75,405,-371.25,-566.25,-33.75,232.5,307.5,378.75,18.75
1334,-240,288.75,-360,-603.75,-138.75,93.75,153.75,225,-64.58333333333333
1335,-270,172.5,-330,-573.75,-161.25,30,60,112.5,-106.66666666666667
1336,-266.25,93.75,-330,-547.5,-168.75,-3.75,3.75,41.25,-130.83333333333334
1337,-266.25,48.75,-341.25,-517.5,-165,-11.25,-15,15,-139.16666666666666
1338,-258.75,30,-337.5,-468.75,-142.5,3.75,-3.75,18.75,-128.75
1339,-228.75,30,-326.25,-427.5,-146.25,-3.75,-3.75,22.5,-120.41666666666667
1340,-202.5,18.75,-311.25,-401.25,-168.75,-33.75,-22.5,11.25,-123.33333333333333
1341,-176.25,15,-288.75,-363.75,-172.5,-52.5,-37.5,0,-119.58333333333333
1342,-153.75,37.5,-262.5,-311.25,-153.75,-45,-33.75,0,-102.5
1343,-127.5,63.75,-240,-258.75,-127.5,-33.75,-30,3.75,-83.33333333333333
1344,-78.75,90,-210,-191.25,-78.75,-7.5,-11.25,22.5,-51.666666666666664
1345,-41.25,101.25,-180,-131.25,-33.75,26.25,11.25,33.75,-23.75
1346,-37.5,105,-131.25,-75,3.75,52.5,33.75,48.75,0.0
1347,-41.25,112.5,-93.75,-41.25,22.5,63.75,33.75,52.5,12.083333333333334
1348,-18.75,108.75,-75,-30,22.5,56.25,26.25,37.5,14.166666666666666
1349,-22.5,75,-78.75,-33.75,11.25,41.25,7.5,18.75,2.0833333333333335
1350,-48.75,37.5,-75,-33.75,3.75,33.75,-3.75,7.5,-8.75
1351,-45,33.75,-67.5,-33.75,-3.75,26.25,-7.5,0,-10.833333333333334
1352,-30,41.25,-60,-30,-7.5,18.75,-15,-3.75,-9.583333333333334
1353,-52.5,30,-60,-30,-15,11.25,-26.25,-15,-17.5
1354,-48.75,41.25,-60,-30,-18.75,3.75,-30,-22.5,-18.333333333333332
1355,-26.25,56.25,-48.75,-18.75,-15,3.75,-30,-15,-10.416666666666666
1356,-30,41.25,-48.75,-15,-15,0,-33.75,-18.75,-13.333333333333334
1357,-45,18.75,-56.25,-30,-30,-15,-45,-30,-25.833333333333332
1358,-48.75,11.25,-56.25,-30,-33.75,-18.75,-52.5,-33.75,-29.166666666666668
1359,-52.5,0,-60,-37.5,-41.25,-26.25,-56.25,-41.25,-35.0
1360,-41.25,7.5,-63.75,-37.5,-48.75,-30,-60,-45,-35.416666666666664
1361,-30,18.75,-56.25,-30,-41.25,-22.5,-52.5,-37.5,-27.916666666666668
1362,-37.5,18.75,-48.75,-30,-37.5,-18.75,-48.75,-37.5,-26.666666666666668
1363,-33.75,26.25,-48.75,-30,-41.25,-22.5,-52.5,-37.5,-26.666666666666668
1364,-26.25,30,-45,-26.25,-37.5,-18.75,-48.75,-33.75,-22.916666666666668
1365,-45,7.5,-45,-18.75,-37.5,-18.75,-48.75,-37.5,-27.083333333333332
1366,-52.5,11.25,-45,-15,-33.75,-18.75,-52.5,-37.5,-27.083333333333332
1367,-41.25,33.75,-45,-11.25,-30,-18.75,-52.5,-33.75,-22.083333333333332
1368,-41.25,18.75,-48.75,-15,-33.75,-22.5,-52.5,-33.75,-25.416666666666668
1369,-60,-3.75,-56.25,-22.5,-41.25,-30,-63.75,-37.5,-35.0
1370,-67.5,-3.75,-56.25,-22.5,-45,-33.75,-63.75,-41.25,-37.083333333333336
1371,-60,-3.75,-67.5,-30,-52.5,-37.5,-71.25,-48.75,-41.25
1372,-41.25,7.5,-60,-26.25,-45,-33.75,-67.5,-45,-34.583333333333336
1373,-33.75,0,-60,-26.25,-45,-30,-63.75,-41.25,-33.333333333333336
1374,-26.25,3.75,-56.25,-26.25,-41.25,-26.25,-56.25,-37.5,-29.583333333333332
1375,-26.25,18.75,-52.5,-18.75,-37.5,-18.75,-52.5,-33.75,-24.583333333333332
1376,-33.75,15,-41.25,-7.5,-22.5,-7.5,-37.5,-22.5,-17.5
1377,-26.25,11.25,-37.5,0,-18.75,0,-33.75,-15,-13.333333333333334
1378,3.75,33.75,-45,0,-22.5,-7.5,-37.5,-18.75,-10.416666666666666
1379,11.25,56.25,-41.25,7.5,-15,-3.75,-33.75,-15,-3.75
1380,11.25,60,-41.25,11.25,-15,-3.75,-33.75,-11.25,-2.5
1381,7.5,45,-48.75,3.75,-15,-3.75,-33.75,-15,-6.666666666666667
1382,3.75,37.5,-48.75,3.75,-15,0,-33.75,-11.25,-7.083333333333333
1383,3.75,41.25,-45,3.75,-11.25,3.75,-30,-11.25,-5.0
1384,3.75,30,-56.25,-3.75,-22.5,-11.25,-45,-26.25,-14.583333333333334
1385,11.25,30,-48.75,0,-18.75,-3.75,-33.75,-22.5,-9.583333333333334
1386,26.25,45,-41.25,7.5,-11.25,7.5,-22.5,-11.25,0.0
1387,3.75,41.25,-41.25,11.25,-7.5,15,-18.75,-3.75,0.0
1388,-26.25,-3.75,-52.5,3.75,-11.25,7.5,-22.5,-7.5,-12.5
1389,-7.5,-3.75,-52.5,7.5,-7.5,11.25,-18.75,-3.75,-8.333333333333334
1390,15,48.75,-52.5,11.25,-3.75,15,-15,0,2.0833333333333335
1391,18.75,75,-60,11.25,-7.5,11.25,-18.75,0,3.3333333333333335
1392,48.75,93.75,-56.25,18.75,0,15,-15,3.75,12.083333333333334
1393,37.5,82.5,-52.5,22.5,3.75,18.75,-11.25,3.75,11.666666666666666
1394,0,45,-56.25,18.75,0,11.25,-18.75,-3.75,-0.4166666666666667
1395,15,45,-67.5,11.25,-7.5,3.75,-26.25,-7.5,-3.75
1396,52.5,75,-60,18.75,0,15,-15,3.75,10.0
1397,37.5,52.5,-60,18.75,0,15,-11.25,7.5,6.666666666666667
1398,30,48.75,-56.25,22.5,7.5,22.5,-7.5,7.5,8.333333333333334
1399,33.75,63.75,-48.75,26.25,11.25,30,-3.75,7.5,13.333333333333334
1400,18.75,52.5,-48.75,30,11.25,30,-7.5,7.5,10.416666666666666
1401,18.75,52.5,-45,37.5,22.5,37.5,0,18.75,15.833333333333334
1402,41.25,75,-48.75,41.25,26.25,37.5,3.75,18.75,21.666666666666668
1403,63.75,86.25,-56.25,41.25,22.5,33.75,3.75,15,23.333333333333332
1404,75,75,-67.5,37.5,15,30,-3.75,11.25,19.166666666666668
1405,78.75,82.5,-60,41.25,22.5,37.5,3.75,18.75,25.0
1406,86.25,97.5,-48.75,52.5,37.5,52.5,18.75,33.75,36.666666666666664
1407,101.25,105,-48.75,56.25,41.25,56.25,26.25,41.25,42.083333333333336
1408,82.5,86.25,-63.75,41.25,30,48.75,15,33.75,30.416666666666668
1409,37.5,56.25,-75,26.25,15,37.5,3.75,18.75,13.333333333333334
1410,33.75,52.5,-71.25,30,18.75,41.25,11.25,18.75,15.0
1411,48.75,60,-67.5,37.5,30,48.75,18.75,26.25,22.5
1412,56.25,63.75,-63.75,45,30,52.5,22.5,33.75,26.666666666666668
1413,67.5,78.75,-60,52.5,37.5,60,30,41.25,34.166666666666664
1414,78.75,97.5,-52.5,60,45,63.75,30,45,40.833333333333336
1415,78.75,93.75,-56.25,63.75,45,60,33.75,48.75,40.833333333333336
1416,78.75,71.25,-67.5,56.25,37.5,52.5,26.25,41.25,32.916666666666664
1417,93.75,90,-63.75,52.5,37.5,56.25,26.25,37.5,36.666666666666664
1418,101.25,120,-63.75,60,41.25,60,30,45,43.75
1419,105,123.75,-67.5,60,45,67.5,37.5,52.5,47.083333333333336
1420,116.25,97.5,-71.25,56.25,45,67.5,37.5,52.5,44.583333333333336
1421,116.25,90,-75,48.75,37.5,60,33.75,48.75,40.0
1422,105,108.75,-67.5,52.5,45,67.5,37.5,56.25,45.0
1423,108.75,120,-63.75,60,48.75,71.25,45,63.75,50.416666666666664
1424,123.75,120,-56.25,67.5,56.25,78.75,52.5,71.25,57.083333333333336
1425,150,131.25,-52.5,71.25,60,82.5,56.25,75,63.75
1426,161.25,146.25,-56.25,75,60,78.75,52.5,71.25,65.41666666666667
1427,131.25,127.5,-56.25,78.75,60,78.75,56.25,75,61.25
1428,101.25,97.5,-71.25,67.5,48.75,71.25,48.75,71.25,48.333333333333336
1429,123.75,101.25,-78.75,60,41.25,67.5,45,67.5,47.5
1430,131.25,108.75,-86.25,52.5,37.5,63.75,45,63.75,46.25
1431,127.5,120,-82.5,60,45,67.5,52.5,78.75,52.083333333333336
1432,146.25,127.5,-82.5,56.25,45,67.5,52.5,78.75,54.583333333333336
1433,146.25,120,-78.75,56.25,41.25,67.5,52.5,82.5,54.166666666666664
1434,142.5,123.75,-75,56.25,45,75,60,86.25,57.083333333333336
1435,165,146.25,-67.5,60,48.75,78.75,67.5,90,65.41666666666667
1436,165,157.5,-67.5,63.75,48.75,78.75,63.75,90,66.66666666666667
1437,168.75,168.75,-71.25,60,45,71.25,60,86.25,65.41666666666667
1438,191.25,187.5,-63.75,67.5,48.75,78.75,67.5,93.75,74.58333333333333
1439,183.75,180,-63.75,71.25,52.5,78.75,71.25,97.5,74.58333333333333
1440,172.5,153.75,-71.25,63.75,41.25,71.25,63.75,93.75,65.41666666666667
1441,183.75,153.75,-75,60,37.5,71.25,60,90,64.58333333333333
1442,198.75,172.5,-71.25,60,41.25,75,67.5,97.5,71.25
1443,168.75,153.75,-78.75,52.5,30,67.5,60,90,60.416666666666664
1444,146.25,123.75,-86.25,45,22.5,56.25,52.5,82.5,49.166666666666664
1445,153.75,116.25,-86.25,45,22.5,56.25,52.5,86.25,49.583333333333336
1446,165,135,-75,52.5,30,67.5,63.75,97.5,59.583333333333336
1447,172.5,142.5,-71.25,56.25,33.75,67.5,67.5,101.25,63.333333333333336
1448,172.5,150,-78.75,45,18.75,52.5,52.5,86.25,55.416666666666664
1449,176.25,172.5,-78.75,48.75,18.75,52.5,48.75,82.5,57.916666666666664
1450,191.25,187.5,-71.25,67.5,33.75,63.75,63.75,97.5,70.41666666666667
1451,213.75,206.25,-67.5,71.25,37.5,63.75,63.75,97.5,76.25
1452,187.5,191.25,-82.5,56.25,15,45,45,82.5,60.0
1453,180,168.75,-82.5,48.75,7.5,37.5,41.25,82.5,53.75
1454,191.25,161.25,-78.75,48.75,3.75,37.5,37.5,78.75,53.333333333333336
1455,172.5,157.5,-78.75,45,3.75,33.75,33.75,75,49.166666666666664
1456,157.5,146.25,-78.75,41.25,-3.75,26.25,26.25,67.5,42.5
1457,153.75,135,-78.75,37.5,-7.5,22.5,22.5,63.75,38.75
1458,161.25,142.5,-67.5,41.25,-3.75,30,30,71.25,45.0
1459,165,142.5,-63.75,48.75,0,30,33.75,71.25,47.5
1460,157.5,142.5,-52.5,56.25,7.5,33.75,37.5,75,50.833333333333336
1461,146.25,131.25,-48.75,56.25,7.5,30,30,67.5,46.666666666666664
1462,150,138.75,-41.25,63.75,11.25,30,33.75,71.25,50.833333333333336
1463,153.75,165,-37.5,67.5,11.25,30,30,67.5,54.166666666666664
1464,150,153.75,-33.75,71.25,11.25,26.25,22.5,60,51.25
1465,135,120,-37.5,63.75,7.5,18.75,18.75,56.25,42.5
1466,116.25,116.25,-33.75,60,3.75,15,15,52.5,38.333333333333336
1467,123.75,138.75,-30,63.75,7.5,18.75,15,48.75,42.916666666666664
1468,131.25,135,-26.25,67.5,11.25,18.75,15,45,44.166666666666664
1469,123.75,116.25,-26.25,63.75,3.75,11.25,3.75,33.75,36.666666666666664
1470,112.5,116.25,-18.75,60,0,7.5,0,30,34.166666666666664
1471,82.5,101.25,-18.75,60,0,7.5,0,26.25,28.75
1472,67.5,82.5,-18.75,56.25,-3.75,0,-7.5,18.75,21.666666666666668
1473,67.5,90,-3.75,67.5,7.5,7.5,-3.75,22.5,28.333333333333332
1474,41.25,86.25,3.75,75,15,11.25,0,26.25,28.75
1475,52.5,93.75,3.75,78.75,15,11.25,0,26.25,31.25
1476,78.75,112.5,0,75,7.5,3.75,-7.5,18.75,32.083333333333336
1477,52.5,90,-11.25,56.25,-7.5,-11.25,-26.25,0,15.833333333333334
1478,30,75,-15,45,-15,-15,-33.75,-7.5,7.083333333333333
1479,37.5,82.5,-7.5,52.5,-7.5,-7.5,-26.25,0,13.75
1480,26.25,67.5,-3.75,52.5,-7.5,-7.5,-26.25,-3.75,10.833333333333334
1481,15,52.5,0,45,-7.5,-7.5,-26.25,-3.75,7.5
1482,18.75,52.5,-7.5,37.5,-15,-15,-33.75,-11.25,2.9166666666666665
1483,0,41.25,3.75,41.25,-11.25,-15,-30,-7.5,2.5
1484,-18.75,33.75,11.25,45,-11.25,-11.25,-33.75,-11.25,0.4166666666666667
1485,-22.5,30,3.75,37.5,-18.75,-18.75,-41.25,-22.5,-5.833333333333333
1486,-3.75,45,3.75,37.5,-18.75,-22.5,-45,-26.25,-3.3333333333333335
1487,22.5,71.25,11.25,45,-11.25,-22.5,-45,-22.5,5.416666666666667
1488,18.75,67.5,11.25,45,-15,-26.25,-48.75,-22.5,3.3333333333333335
1489,-11.25,45,7.5,37.5,-18.75,-30,-52.5,-30,-5.833333333333333
1490,-30,33.75,0,30,-22.5,-33.75,-56.25,-33.75,-12.5
1491,-30,15,-3.75,22.5,-30,-37.5,-60,-37.5,-17.916666666666668
1492,-37.5,-3.75,-3.75,18.75,-30,-37.5,-63.75,-45,-22.5
1493,-52.5,-15,0,15,-30,-37.5,-63.75,-41.25,-25.0
1494,-52.5,-30,0,15,-33.75,-37.5,-60,-41.25,-26.666666666666668
1495,-71.25,-45,0,11.25,-33.75,-37.5,-60,-41.25,-30.833333333333332
1496,-75,-26.25,-3.75,3.75,-41.25,-48.75,-71.25,-52.5,-35.0
1497,-41.25,18.75,-3.75,3.75,-41.25,-48.75,-71.25,-52.5,-26.25
1498,-26.25,37.5,3.75,11.25,-33.75,-37.5,-60,-45,-16.666666666666668
1499,-45,33.75,7.5,15,-30,-37.5,-60,-45,-17.916666666666668
1500,-63.75,3.75,-11.25,-3.75,-48.75,-56.25,-75,-60,-35.0
1501,-60,-18.75,-18.75,-15,-60,-63.75,-82.5,-67.5,-42.916666666666664
1502,-52.5,-3.75,-11.25,-11.25,-56.25,-60,-82.5,-67.5,-38.333333333333336
1503,-52.5,7.5,-7.5,-11.25,-52.5,-60,-78.75,-67.5,-35.833333333333336
1504,-52.5,-7.5,-11.25,-15,-56.25,-63.75,-82.5,-67.5,-39.583333333333336
1505,-63.75,-30,-11.25,-18.75,-56.25,-60,-82.5,-67.5,-43.333333333333336
1506,-48.75,-22.5,-7.5,-18.75,-56.25,-56.25,-78.75,-60,-38.75
1507,-48.75,-11.25,-3.75,-15,-52.5,-52.5,-75,-56.25,-35.0
1508,-56.25,-3.75,0,-7.5,-45,-45,-63.75,-48.75,-30.0
1509,-37.5,7.5,0,-7.5,-45,-45,-63.75,-48.75,-26.666666666666668
1510,-48.75,11.25,3.75,-11.25,-48.75,-52.5,-71.25,-52.5,-30.0
1511,-71.25,-11.25,-3.75,-11.25,-52.5,-60,-78.75,-60,-38.75
1512,-78.75,-26.25,-3.75,-11.25,-52.5,-60,-78.75,-60,-41.25
1513,-71.25,-11.25,-11.25,-15,-56.25,-60,-82.5,-63.75,-41.25
1514,-56.25,-7.5,-15,-22.5,-60,-63.75,-82.5,-63.75,-41.25
1515,-56.25,-11.25,-7.5,-15,-48.75,-56.25,-75,-52.5,-35.833333333333336
1516,-60,-3.75,0,-11.25,-45,-52.5,-71.25,-52.5,-32.916666666666664
1517,-63.75,-11.25,-11.25,-22.5,-56.25,-63.75,-82.5,-63.75,-41.666666666666664
1518,-78.75,-18.75,-18.75,-30,-63.75,-67.5,-86.25,-71.25,-48.333333333333336
1519,-105,-37.5,-15,-26.25,-60,-67.5,-86.25,-67.5,-51.666666666666664
1520,-90,-37.5,-7.5,-11.25,-48.75,-56.25,-78.75,-60,-43.333333333333336
1521,-67.5,-11.25,0,-3.75,-37.5,-45,-67.5,-52.5,-31.666666666666668
1522,-67.5,0,7.5,7.5,-30,-37.5,-60,-45,-25.0
1523,-78.75,-15,3.75,7.5,-30,-41.25,-63.75,-48.75,-29.583333333333332
1524,-90,-26.25,-11.25,-11.25,-45,-56.25,-75,-60,-41.666666666666664
1525,-108.75,-30,-18.75,-18.75,-56.25,-63.75,-86.25,-71.25,-50.416666666666664
1526,-112.5,-22.5,-7.5,-11.25,-48.75,-56.25,-78.75,-67.5,-45.0
1527,-82.5,-11.25,-3.75,-3.75,-41.25,-48.75,-71.25,-60,-35.833333333333336
1528,-56.25,3.75,-3.75,0,-33.75,-41.25,-67.5,-56.25,-28.333333333333332
1529,-52.5,7.5,3.75,7.5,-26.25,-33.75,-60,-48.75,-22.5
1530,-52.5,-11.25,-3.75,-3.75,-33.75,-41.25,-67.5,-56.25,-30.0
1531,-60,-15,-7.5,-3.75,-37.5,-45,-71.25,-60,-33.333333333333336
1532,-63.75,3.75,0,3.75,-30,-37.5,-63.75,-52.5,-26.666666666666668
1533,-56.25,11.25,0,7.5,-26.25,-30,-60,-48.75,-22.5
1534,-52.5,18.75,3.75,15,-22.5,-30,-56.25,-45,-18.75
1535,-63.75,26.25,3.75,18.75,-18.75,-30,-52.5,-41.25,-17.5
1536,-67.5,11.25,-3.75,15,-18.75,-30,-56.25,-41.25,-21.25
1537,-71.25,-11.25,-15,3.75,-30,-37.5,-63.75,-48.75,-30.416666666666668
1538,-60,-11.25,-18.75,0,-30,-41.25,-63.75,-48.75,-30.416666666666668
1539,-45,-3.75,-18.75,-3.75,-33.75,-41.25,-63.75,-52.5,-29.166666666666668
1540,-30,3.75,-15,-3.75,-33.75,-41.25,-63.75,-52.5,-26.25
1541,-41.25,-3.75,-15,0,-30,-37.5,-60,-48.75,-26.25
1542,-52.5,3.75,-7.5,3.75,-26.25,-30,-52.5,-41.25,-22.5
1543,-37.5,30,0,7.5,-22.5,-26.25,-48.75,-41.25,-15.416666666666666
1544,-18.75,37.5,3.75,15,-18.75,-26.25,-48.75,-37.5,-10.416666666666666
1545,-37.5,11.25,-3.75,7.5,-22.5,-33.75,-60,-45,-20.416666666666668
1546,-67.5,3.75,-11.25,7.5,-26.25,-37.5,-63.75,-45,-26.666666666666668
1547,-75,0,-11.25,11.25,-22.5,-37.5,-63.75,-41.25,-26.666666666666668
1548,-48.75,7.5,-15,7.5,-26.25,-41.25,-63.75,-45,-25.0
1549,-26.25,26.25,-15,3.75,-26.25,-37.5,-63.75,-41.25,-20.0
1550,-45,7.5,-18.75,0,-26.25,-41.25,-63.75,-45,-25.833333333333332
1551,-48.75,0,-15,7.5,-22.5,-37.5,-63.75,-41.25,-24.583333333333332
1552,-56.25,-3.75,-7.5,11.25,-18.75,-33.75,-60,-41.25,-23.333333333333332
1553,-60,-11.25,-7.5,7.5,-18.75,-30,-60,-41.25,-24.583333333333332
1554,-48.75,-11.25,-15,-3.75,-30,-37.5,-63.75,-48.75,-28.75
1555,-60,-15,-18.75,-7.5,-33.75,-41.25,-71.25,-52.5,-33.333333333333336
1556,-67.5,-11.25,-7.5,7.5,-18.75,-30,-56.25,-41.25,-25.0
1557,-60,3.75,-3.75,15,-15,-26.25,-52.5,-33.75,-19.166666666666668
1558,-56.25,18.75,-7.5,18.75,-11.25,-26.25,-52.5,-33.75,-16.666666666666668
1559,-48.75,26.25,-3.75,26.25,-7.5,-22.5,-48.75,-30,-12.083333333333334
1560,-60,0,-15,11.25,-18.75,-33.75,-60,-41.25,-24.166666666666668
1561,-82.5,-30,-18.75,3.75,-22.5,-37.5,-63.75,-45,-32.916666666666664
1562,-78.75,-26.25,-18.75,3.75,-26.25,-37.5,-67.5,-45,-32.916666666666664
1563,-67.5,-15,-26.25,-3.75,-30,-45,-71.25,-48.75,-34.166666666666664
1564,-52.5,-3.75,-22.5,-3.75,-26.25,-37.5,-63.75,-45,-28.333333333333332
1565,-41.25,-7.5,-26.25,-7.5,-26.25,-37.5,-63.75,-45,-28.333333333333332
1566,-41.25,-7.5,-26.25,-11.25,-30,-41.25,-67.5,-48.75,-30.416666666666668
1567,-56.25,-3.75,-18.75,-7.5,-26.25,-37.5,-63.75,-41.25,-28.333333333333332
1568,-60,0,-15,0,-22.5,-33.75,-56.25,-37.5,-25.0
1569,-37.5,22.5,-15,3.75,-18.75,-30,-52.5,-33.75,-17.916666666666668
1570,-18.75,41.25,-7.5,11.25,-11.25,-26.25,-48.75,-26.25,-9.583333333333334
1571,-7.5,45,-7.5,18.75,-7.5,-22.5,-41.25,-18.75,-4.583333333333333
1572,-15,33.75,-15,7.5,-18.75,-30,-48.75,-26.25,-12.5
1573,-45,15,-30,-7.5,-37.5,-48.75,-67.5,-45,-29.583333333333332
1574,-67.5,-3.75,-30,-11.25,-41.25,-52.5,-71.25,-48.75,-36.25
1575,-78.75,-26.25,-33.75,-15,-41.25,-52.5,-71.25,-48.75,-40.833333333333336
1576,-82.5,-41.25,-37.5,-22.5,-45,-56.25,-75,-52.5,-45.833333333333336
1577,-90,-48.75,-33.75,-18.75,-41.25,-52.5,-71.25,-48.75,-45.0
1578,-75,-41.25,-22.5,-11.25,-33.75,-41.25,-60,-37.5,-35.833333333333336
1579,-67.5,-22.5,-18.75,-3.75,-26.25,-33.75,-52.5,-30,-28.333333333333332
1580,-71.25,-15,-22.5,-7.5,-30,-37.5,-56.25,-37.5,-30.833333333333332
1581,-52.5,-11.25,-26.25,-11.25,-33.75,-45,-63.75,-41.25,-31.666666666666668
1582,-52.5,0,-22.5,-7.5,-33.75,-45,-60,-37.5,-28.75
1583,-52.5,7.5,-30,-11.25,-37.5,-52.5,-67.5,-45,-32.083333333333336
1584,-15,22.5,-41.25,-18.75,-45,-56.25,-71.25,-45,-30.0
1585,0,18.75,-45,-22.5,-45,-52.5,-67.5,-41.25,-28.333333333333332
1586,-37.5,0,-41.25,-22.5,-45,-56.25,-71.25,-45,-35.416666666666664
1587,-63.75,-11.25,-45,-26.25,-52.5,-67.5,-82.5,-56.25,-45.0
1588,-67.5,-18.75,-41.25,-30,-56.25,-67.5,-86.25,-60,-47.5
1589,-71.25,-22.5,-37.5,-30,-48.75,-56.25,-75,-52.5,-43.75
1590,-75,-22.5,-37.5,-33.75,-52.5,-56.25,-75,-48.75,-44.583333333333336
1591,-63.75,-11.25,-37.5,-30,-48.75,-52.5,-71.25,-48.75,-40.416666666666664
1592,-71.25,-11.25,-37.5,-26.25,-45,-52.5,-71.25,-48.75,-40.416666666666664
1593,-86.25,-22.5,-41.25,-33.75,-52.5,-63.75,-78.75,-56.25,-48.333333333333336
1594,-71.25,-11.25,-30,-18.75,-41.25,-52.5,-67.5,-41.25,-37.083333333333336
1595,-52.5,0,-30,-15,-41.25,-52.5,-63.75,-37.5,-32.5
1596,-48.75,0,-37.5,-26.25,-48.75,-60,-71.25,-45,-37.5
1597,-52.5,-7.5,-37.5,-30,-52.5,-63.75,-75,-48.75,-40.833333333333336
1598,-60,-11.25,-33.75,-26.25,-48.75,-60,-75,-45,-40.0
1599,-52.5,-3.75,-41.25,-30,-52.5,-67.5,-78.75,-48.75,-41.666666666666664
1600,-48.75,-11.25,-48.75,-41.25,-63.75,-78.75,-90,-60,-49.166666666666664
1601,-67.5,-30,-48.75,-52.5,-75,-86.25,-97.5,-67.5,-58.333333333333336
1602,-67.5,-15,-37.5,-45,-63.75,-75,-86.25,-56.25,-49.583333333333336
1603,-52.5,3.75,-26.25,-30,-48.75,-60,-71.25,-45,-36.666666666666664
1604,-56.25,-7.5,-30,-37.5,-56.25,-67.5,-82.5,-56.25,-43.75
1605,-75,-33.75,-33.75,-41.25,-60,-71.25,-86.25,-60,-51.25
1606,-75,-33.75,-22.5,-26.25,-45,-60,-75,-48.75,-42.916666666666664
1607,-60,-11.25,-18.75,-18.75,-41.25,-60,-75,-48.75,-37.083333333333336
1608,-41.25,3.75,-33.75,-30,-56.25,-71.25,-86.25,-63.75,-42.083333333333336
1609,-37.5,7.5,-41.25,-41.25,-63.75,-75,-90,-67.5,-45.416666666666664
1610,-48.75,3.75,-45,-45,-67.5,-75,-93.75,-67.5,-48.75
1611,-52.5,3.75,-41.25,-45,-67.5,-75,-90,-63.75,-47.916666666666664
1612,-41.25,3.75,-37.5,-41.25,-63.75,-71.25,-86.25,-56.25,-43.75
1613,-48.75,-11.25,-45,-48.75,-71.25,-75,-86.25,-60,-49.583333333333336
1614,-78.75,-26.25,-52.5,-52.5,-71.25,-71.25,-86.25,-60,-55.416666666666664
1615,-93.75,-30,-48.75,-52.5,-67.5,-71.25,-82.5,-60,-56.25
1616,-86.25,-33.75,-52.5,-56.25,-75,-75,-90,-63.75,-59.166666666666664
1617,-71.25,-18.75,-41.25,-45,-63.75,-67.5,-78.75,-56.25,-49.166666666666664
1618,-52.5,11.25,-30,-30,-52.5,-60,-71.25,-45,-36.666666666666664
1619,-60,-7.5,-37.5,-33.75,-60,-67.5,-78.75,-48.75,-43.75
1620,-75,-33.75,-56.25,-52.5,-75,-82.5,-90,-56.25,-57.916666666666664
1621,-67.5,-22.5,-48.75,-48.75,-67.5,-75,-86.25,-52.5,-52.083333333333336
1622,-33.75,0,-45,-41.25,-63.75,-71.25,-86.25,-48.75,-43.333333333333336
1623,-37.5,3.75,-48.75,-41.25,-63.75,-71.25,-86.25,-52.5,-44.166666666666664
1624,-63.75,-11.25,-52.5,-48.75,-67.5,-75,-86.25,-48.75,-50.416666666666664
1625,-78.75,-33.75,-52.5,-52.5,-67.5,-75,-90,-56.25,-56.25
1626,-78.75,-41.25,-45,-48.75,-67.5,-75,-93.75,-67.5,-57.5
1627,-71.25,-22.5,-33.75,-33.75,-56.25,-67.5,-82.5,-56.25,-47.083333333333336
1628,-56.25,3.75,-26.25,-26.25,-48.75,-60,-75,-45,-37.083333333333336
1629,-60,0,-30,-33.75,-56.25,-63.75,-78.75,-48.75,-41.25
1630,-56.25,0,-30,-26.25,-52.5,-63.75,-75,-48.75,-39.166666666666664
1631,-45,7.5,-37.5,-30,-56.25,-67.5,-82.5,-52.5,-40.416666666666664
1632,-63.75,-15,-48.75,-41.25,-63.75,-78.75,-93.75,-60,-51.666666666666664
1633,-101.25,-48.75,-56.25,-48.75,-71.25,-82.5,-97.5,-63.75,-63.333333333333336
1634,-108.75,-52.5,-56.25,-52.5,-71.25,-75,-90,-63.75,-63.333333333333336
1635,-90,-41.25,-56.25,-48.75,-67.5,-71.25,-82.5,-56.25,-57.083333333333336
1636,-75,-37.5,-52.5,-45,-67.5,-71.25,-82.5,-52.5,-53.75
1637,-67.5,-37.5,-52.5,-48.75,-63.75,-67.5,-78.75,-45,-51.25
1638,-71.25,-45,-56.25,-52.5,-63.75,-63.75,-78.75,-48.75,-53.333333333333336
1639,-82.5,-37.5,-52.5,-52.5,-67.5,-71.25,-86.25,-60,-56.666666666666664
1640,-71.25,-18.75,-48.75,-48.75,-67.5,-67.5,-82.5,-52.5,-50.833333333333336
1641,-82.5,-30,-52.5,-52.5,-71.25,-75,-82.5,-56.25,-55.833333333333336
1642,-93.75,-22.5,-41.25,-41.25,-60,-67.5,-75,-45,-49.583333333333336
1643,-63.75,11.25,-33.75,-26.25,-52.5,-60,-67.5,-33.75,-36.25
1644,-52.5,7.5,-37.5,-30,-56.25,-63.75,-75,-37.5,-38.333333333333336
1645,-63.75,-15,-52.5,-41.25,-63.75,-75,-86.25,-52.5,-50.0
1646,-67.5,-18.75,-56.25,-48.75,-71.25,-82.5,-97.5,-60,-55.833333333333336
1647,-60,-11.25,-45,-41.25,-67.5,-82.5,-93.75,-56.25,-50.833333333333336
1648,-60,-7.5,-37.5,-33.75,-60,-71.25,-78.75,-48.75,-44.166666666666664
1649,-71.25,-7.5,-30,-33.75,-52.5,-63.75,-71.25,-37.5,-40.833333333333336
1650,-52.5,0,-33.75,-33.75,-56.25,-63.75,-75,-41.25,-39.583333333333336
1651,-30,15,-30,-26.25,-48.75,-56.25,-67.5,-37.5,-31.25
1652,-52.5,7.5,-22.5,-18.75,-45,-56.25,-67.5,-33.75,-32.083333333333336
1653,-71.25,3.75,-15,-15,-45,-56.25,-63.75,-33.75,-32.916666666666664
1654,-56.25,37.5,0,0,-33.75,-45,-56.25,-22.5,-19.583333333333332
1655,-48.75,56.25,11.25,7.5,-26.25,-41.25,-48.75,-18.75,-12.083333333333334
1656,-60,33.75,0,-3.75,-37.5,-56.25,-63.75,-30,-24.166666666666668
1657,-71.25,15,-7.5,-15,-48.75,-60,-67.5,-37.5,-32.5
1658,-63.75,26.25,-3.75,-7.5,-41.25,-56.25,-63.75,-30,-26.666666666666668
1659,-56.25,37.5,0,-3.75,-33.75,-52.5,-60,-30,-22.083333333333332
1660,-45,33.75,0,0,-30,-48.75,-60,-30,-20.0
1661,-30,37.5,3.75,3.75,-26.25,-45,-56.25,-26.25,-15.416666666666666
1662,-37.5,37.5,3.75,11.25,-22.5,-33.75,-45,-15,-11.25
1663,-45,30,0,11.25,-22.5,-33.75,-45,-18.75,-13.75
1664,-56.25,22.5,7.5,18.75,-15,-30,-45,-18.75,-12.916666666666666
1665,-78.75,15,11.25,22.5,-11.25,-30,-41.25,-15,-14.166666666666666
1666,-63.75,30,18.75,33.75,-7.5,-26.25,-37.5,-11.25,-7.083333333333333
1667,-52.5,45,15,30,-11.25,-30,-41.25,-15,-6.666666666666667
1668,-52.5,56.25,22.5,30,-7.5,-26.25,-37.5,-11.25,-2.9166666666666665
1669,-41.25,71.25,30,37.5,0,-15,-22.5,3.75,7.083333333333333
1670,-30,67.5,15,33.75,-3.75,-22.5,-26.25,3.75,4.166666666666667
1671,-30,67.5,3.75,30,-7.5,-18.75,-22.5,7.5,3.3333333333333335
1672,-30,71.25,3.75,26.25,0,-11.25,-15,15,6.666666666666667
1673,-11.25,75,-7.5,18.75,-3.75,-11.25,-18.75,11.25,5.833333333333333
1674,-26.25,67.5,-22.5,15,-7.5,-15,-22.5,3.75,-0.8333333333333334
1675,-37.5,60,-30,15,-7.5,-15,-22.5,7.5,-3.3333333333333335
1676,-15,60,-45,3.75,-11.25,-18.75,-26.25,7.5,-5.0
1677,-11.25,52.5,-56.25,0,-18.75,-26.25,-30,3.75,-9.583333333333334
1678,-7.5,63.75,-60,3.75,-15,-26.25,-26.25,7.5,-6.666666666666667
1679,7.5,78.75,-60,3.75,-15,-22.5,-26.25,11.25,-2.5
1680,7.5,63.75,-67.5,-7.5,-22.5,-30,-30,7.5,-8.75
1681,7.5,56.25,-78.75,-22.5,-41.25,-41.25,-37.5,0,-17.5
1682,7.5,60,-82.5,-30,-45,-45,-37.5,0,-19.166666666666668
1683,0,48.75,-86.25,-33.75,-48.75,-48.75,-45,-3.75,-24.166666666666668
1684,-11.25,30,-86.25,-41.25,-56.25,-56.25,-56.25,-11.25,-32.083333333333336
1685,-18.75,22.5,-86.25,-52.5,-67.5,-67.5,-63.75,-18.75,-39.166666666666664
1686,-30,18.75,-78.75,-45,-60,-56.25,-56.25,-11.25,-35.416666666666664
1687,-37.5,26.25,-56.25,-22.5,-41.25,-37.5,-37.5,3.75,-22.5
1688,-30,26.25,-52.5,-18.75,-37.5,-37.5,-37.5,7.5,-20.0
1689,-22.5,18.75,-56.25,-26.25,-48.75,-48.75,-52.5,-11.25,-27.5
1690,-37.5,18.75,-48.75,-22.5,-45,-48.75,-52.5,-22.5,-28.75
1691,-52.5,15,-52.5,-18.75,-45,-52.5,-60,-26.25,-32.5
1692,-48.75,-3.75,-71.25,-37.5,-63.75,-67.5,-75,-37.5,-45.0
1693,-37.5,3.75,-71.25,-37.5,-63.75,-67.5,-71.25,-30,-41.666666666666664
1694,-37.5,18.75,-71.25,-37.5,-63.75,-67.5,-75,-30,-40.416666666666664
1695,-30,33.75,-60,-26.25,-52.5,-60,-67.5,-26.25,-32.083333333333336
1696,-15,37.5,-48.75,-18.75,-45,-48.75,-60,-18.75,-24.166666666666668
1697,-3.75,33.75,-48.75,-22.5,-48.75,-52.5,-60,-22.5,-25.0
1698,-30,11.25,-52.5,-30,-52.5,-52.5,-63.75,-22.5,-32.5
1699,-67.5,-22.5,-56.25,-37.5,-60,-60,-67.5,-30,-44.583333333333336
1700,-78.75,-30,-63.75,-45,-75,-75,-82.5,-45,-55.0
1701,-71.25,-15,-60,-45,-75,-75,-86.25,-45,-52.5
1702,-86.25,-18.75,-60,-41.25,-75,-75,-82.5,-45,-53.75
1703,-90,-26.25,-60,-41.25,-75,-82.5,-90,-45,-56.666666666666664
1704,-86.25,-45,-71.25,-52.5,-86.25,-90,-97.5,-56.25,-65.0
1705,-82.5,-52.5,-86.25,-60,-93.75,-97.5,-105,-56.25,-70.41666666666667
1706,-45,-22.5,-75,-48.75,-78.75,-86.25,-93.75,-41.25,-54.583333333333336
1707,-56.25,-22.5,-67.5,-41.25,-71.25,-78.75,-86.25,-41.25,-51.666666666666664
1708,-78.75,-45,-71.25,-52.5,-82.5,-82.5,-93.75,-48.75,-61.666666666666664
1709,-67.5,-41.25,-78.75,-60,-82.5,-82.5,-90,-48.75,-61.25
1710,-67.5,-22.5,-67.5,-56.25,-78.75,-75,-82.5,-37.5,-54.166666666666664
1711,-86.25,-33.75,-67.5,-56.25,-82.5,-82.5,-90,-45,-60.416666666666664
1712,-108.75,-67.5,-75,-60,-90,-93.75,-101.25,-56.25,-72.5
1713,-101.25,-48.75,-67.5,-52.5,-78.75,-82.5,-90,-48.75,-63.333333333333336
1714,-82.5,-11.25,-56.25,-33.75,-63.75,-67.5,-78.75,-33.75,-47.5
1715,-82.5,-15,-60,-37.5,-71.25,-75,-82.5,-37.5,-51.25
1716,-97.5,-33.75,-60,-41.25,-78.75,-82.5,-86.25,-45,-58.333333333333336
1717,-90,-37.5,-67.5,-48.75,-82.5,-86.25,-90,-45,-60.833333333333336
1718,-82.5,-45,-71.25,-52.5,-86.25,-90,-97.5,-52.5,-64.16666666666667
1719,-71.25,-37.5,-75,-56.25,-86.25,-90,-97.5,-48.75,-62.5
1720,-63.75,-33.75,-78.75,-56.25,-86.25,-90,-93.75,-45,-60.833333333333336
1721,-56.25,-37.5,-78.75,-56.25,-82.5,-86.25,-93.75,-48.75,-60.0
1722,-67.5,-45,-78.75,-56.25,-82.5,-82.5,-93.75,-48.75,-61.666666666666664
1723,-93.75,-52.5,-71.25,-52.5,-82.5,-82.5,-93.75,-48.75,-64.16666666666667
1724,-93.75,-48.75,-63.75,-48.75,-82.5,-86.25,-97.5,-56.25,-64.16666666666667
1725,-78.75,-45,-60,-41.25,-82.5,-90,-101.25,-63.75,-62.5
1726,-71.25,-52.5,-48.75,-18.75,-75,-93.75,-105,-67.5,-59.166666666666664
1727,-60,-60,-18.75,18.75,-60,-97.5,-112.5,-78.75,-52.083333333333336
1728,-60,-86.25,18.75,56.25,-56.25,-116.25,-142.5,-112.5,-55.416666666666664
1729,-37.5,-105,67.5,97.5,-48.75,-135,-172.5,-146.25,-53.333333333333336
1730,-22.5,-105,120,150,-37.5,-146.25,-195,-165,-44.583333333333336
1731,-37.5,-101.25,161.25,202.5,-15,-142.5,-195,-168.75,-32.916666666666664
1732,-15,-78.75,195,262.5,26.25,-116.25,-180,-153.75,-6.666666666666667
1733,18.75,-26.25,236.25,333.75,90,-63.75,-135,-116.25,37.5
1734,37.5,22.5,262.5,405,153.75,-7.5,-90,-82.5,77.91666666666667
1735,78.75,71.25,277.5,465,217.5,52.5,-30,-30,122.5
1736,135,131.25,288.75,517.5,281.25,120,37.5,37.5,172.08333333333334
1737,202.5,217.5,292.5,555,337.5,191.25,112.5,105,223.75
1738,285,322.5,288.75,607.5,412.5,277.5,206.25,202.5,289.1666666666667
1739,352.5,412.5,266.25,656.25,495,382.5,315,311.25,354.5833333333333
1740,393.75,513.75,240,693.75,577.5,495,435,427.5,419.5833333333333
1741,438.75,633.75,210,693.75,648.75,603.75,562.5,555,482.9166666666667
1742,495,757.5,150,678.75,723.75,727.5,697.5,690,546.6666666666666
1743,525,907.5,135,723.75,847.5,888.75,866.25,851.25,638.3333333333334
1744,547.5,1095,116.25,768.75,975,1068.75,1057.5,1035,740.4166666666666
1745,570,1297.5,26.25,727.5,1050,1230,1256.25,1241.25,822.0833333333334
1746,600,1425,-108.75,641.25,1098.75,1365,1428.75,1417.5,874.1666666666666
1747,648.75,1492.5,-225,540,1132.5,1477.5,1571.25,1552.5,910.0
1748,656.25,1563.75,-311.25,412.5,1151.25,1586.25,1702.5,1683.75,938.3333333333334
1749,611.25,1571.25,-315,360,1192.5,1676.25,1792.5,1747.5,959.5833333333334
1750,532.5,1477.5,-270,405,1271.25,1743.75,1822.5,1725,967.5
1751,457.5,1395,-262.5,397.5,1316.25,1785,1830,1691.25,956.6666666666666
1752,390,1323.75,-300,285,1263.75,1740,1773.75,1620,899.5833333333334
1753,300,1185,-322.5,138.75,1125,1586.25,1612.5,1462.5,787.5
1754,172.5,1005,-296.25,26.25,956.25,1350,1365,1241.25,646.6666666666666
1755,48.75,828.75,-247.5,-71.25,750,1076.25,1087.5,1008.75,497.9166666666667
1756,-60,652.5,-236.25,-202.5,483.75,753.75,783.75,757.5,325.8333333333333
1757,-153.75,513.75,-240,-341.25,225,461.25,513.75,543.75,169.16666666666666
1758,-191.25,416.25,-247.5,-442.5,37.5,243.75,315,382.5,57.083333333333336
1759,-183.75,322.5,-247.5,-472.5,-48.75,131.25,183.75,243.75,-7.916666666666667
1760,-195,217.5,-232.5,-453.75,-71.25,71.25,97.5,138.75,-47.5
1761,-232.5,131.25,-236.25,-438.75,-90,37.5,48.75,86.25,-77.08333333333333
1762,-243.75,90,-266.25,-420,-86.25,33.75,45,75,-85.83333333333333
1763,-236.25,78.75,-277.5,-386.25,-75,41.25,56.25,82.5,-79.58333333333333
1764,-221.25,67.5,-277.5,-356.25,-86.25,22.5,45,75,-81.25
1765,-187.5,48.75,-277.5,-337.5,-116.25,-11.25,18.75,63.75,-88.75
1766,-183.75,15,-273.75,-311.25,-131.25,-33.75,-3.75,45,-97.5
1767,-161.25,7.5,-262.5,-273.75,-120,-41.25,-15,37.5,-92.08333333333333
1768,-105,30,-240,-228.75,-97.5,-30,-11.25,41.25,-71.25
1769,-75,56.25,-210,-176.25,-56.25,0,7.5,56.25,-44.166666666666664
1770,-52.5,82.5,-176.25,-101.25,0,41.25,45,82.5,-8.75
1771,-41.25,86.25,-142.5,-45,37.5,63.75,60,93.75,12.5
1772,-41.25,86.25,-108.75,-7.5,60,75,63.75,93.75,24.583333333333332
1773,-22.5,101.25,-78.75,22.5,75,78.75,67.5,93.75,37.5
1774,-15,97.5,-67.5,37.5,71.25,71.25,52.5,82.5,36.666666666666664
1775,-22.5,71.25,-67.5,33.75,60,52.5,33.75,63.75,25.0
1776,-18.75,63.75,-63.75,37.5,56.25,45,26.25,56.25,22.5
1777,-30,60,-56.25,37.5,52.5,37.5,18.75,48.75,18.75
1778,-33.75,52.5,-52.5,37.5,45,30,11.25,41.25,14.583333333333334
1779,-22.5,48.75,-56.25,33.75,37.5,18.75,3.75,33.75,10.833333333333334
1780,-30,33.75,-60,26.25,26.25,11.25,-3.75,30,3.75
1781,-37.5,26.25,-52.5,26.25,22.5,11.25,-3.75,26.25,2.0833333333333335
1782,-37.5,18.75,-52.5,18.75,15,3.75,-15,15,-3.75
1783,-33.75,22.5,-48.75,26.25,18.75,3.75,-15,15,-1.25
1784,-22.5,33.75,-48.75,30,18.75,7.5,-11.25,22.5,3.3333333333333335
1785,-15,41.25,-48.75,33.75,18.75,7.5,-11.25,30,6.25
1786,-26.25,41.25,-45,41.25,22.5,7.5,-7.5,33.75,7.5
1787,-30,33.75,-56.25,37.5,18.75,0,-11.25,26.25,2.0833333333333335
1788,0,41.25,-56.25,37.5,15,0,-15,22.5,5.0
1789,15,52.5,-48.75,41.25,18.75,7.5,-7.5,30,12.083333333333334
1790,3.75,52.5,-48.75,45,22.5,11.25,-7.5,30,12.083333333333334
1791,7.5,48.75,-48.75,45,18.75,3.75,-11.25,30,10.416666666666666
1792,22.5,45,-56.25,33.75,11.25,-3.75,-15,22.5,6.666666666666667
1793,18.75,45,-56.25,30,11.25,0,-15,22.5,6.25
1794,3.75,37.5,-52.5,33.75,15,3.75,-7.5,33.75,7.5
1795,-22.5,18.75,-56.25,33.75,15,7.5,-7.5,30,2.0833333333333335
1796,-30,15,-63.75,30,7.5,0,-15,15,-4.583333333333333
1797,-18.75,37.5,-52.5,45,18.75,7.5,-11.25,18.75,5.0
1798,-7.5,52.5,-41.25,60,33.75,15,-3.75,30,15.416666666666666
1799,-11.25,45,-48.75,52.5,22.5,7.5,-7.5,30,10.0
1800,-11.25,33.75,-60,45,15,0,-15,26.25,3.75
1801,-11.25,30,-56.25,45,18.75,3.75,-11.25,22.5,4.583333333333333
1802,3.75,41.25,-48.75,52.5,26.25,15,-3.75,33.75,13.333333333333334
1803,11.25,37.5,-56.25,48.75,22.5,11.25,-3.75,30,11.25
1804,-7.5,15,-63.75,41.25,15,3.75,-11.25,26.25,2.0833333333333335
1805,-18.75,18.75,-52.5,48.75,22.5,11.25,-3.75,33.75,6.666666666666667
1806,-15,33.75,-45,56.25,30,22.5,3.75,41.25,14.166666666666666
1807,15,45,-48.75,60,30,22.5,7.5,41.25,19.166666666666668
1808,30,56.25,-48.75,63.75,33.75,22.5,15,52.5,25.0
1809,26.25,71.25,-41.25,71.25,41.25,22.5,15,63.75,30.0
1810,18.75,75,-37.5,78.75,45,22.5,7.5,52.5,29.166666666666668
1811,33.75,71.25,-48.75,75,41.25,30,15,45,29.166666666666668
1812,56.25,71.25,-60,67.5,37.5,30,18.75,48.75,30.0
1813,60,71.25,-60,67.5,37.5,30,11.25,52.5,30.0
1814,48.75,71.25,-56.25,71.25,45,33.75,18.75,60,32.5
1815,45,63.75,-60,71.25,45,37.5,26.25,63.75,32.5
1816,41.25,52.5,-60,67.5,45,37.5,26.25,60,30.0
1817,48.75,56.25,-60,67.5,45,33.75,22.5,56.25,30.0
1818,67.5,75,-52.5,75,48.75,30,18.75,63.75,36.25
1819,86.25,93.75,-52.5,82.5,60,41.25,30,86.25,47.5
1820,67.5,90,-52.5,86.25,60,48.75,37.5,86.25,47.083333333333336
1821,48.75,78.75,-56.25,82.5,52.5,45,30,63.75,38.333333333333336
1822,52.5,82.5,-52.5,90,60,60,37.5,67.5,44.166666666666664
1823,67.5,97.5,-52.5,97.5,63.75,63.75,41.25,78.75,50.833333333333336
