samplenr,I,II,V1,V2,V3,V4,V5,V6,measurement
0,-22.5,-101.25,56.25,-11.25,-101.25,-101.25,-116.25,-75,-52.5
1,-37.5,-97.5,48.75,-26.25,-112.5,-116.25,-135,-90,-62.916666666666664
2,-48.75,-97.5,45,-30,-120,-127.5,-146.25,-97.5,-69.16666666666667
3,-67.5,-82.5,60,-15,-97.5,-101.25,-123.75,-78.75,-56.25
4,-120,-71.25,67.5,-7.5,-86.25,-86.25,-108.75,-71.25,-53.75
5,-135,-45,63.75,-11.25,-86.25,-82.5,-108.75,-71.25,-52.916666666666664
6,-97.5,-18.75,48.75,-18.75,-101.25,-93.75,-120,-78.75,-53.333333333333336
7,-71.25,-18.75,41.25,-26.25,-108.75,-105,-131.25,-86.25,-56.25
8,-30,-26.25,30,-37.5,-120,-123.75,-150,-101.25,-62.083333333333336
9,26.25,-56.25,22.5,-48.75,-135,-146.25,-165,-108.75,-67.91666666666667
10,26.25,-108.75,26.25,-48.75,-138.75,-150,-165,-105,-73.75
11,-18.75,-138.75,26.25,-52.5,-146.25,-153.75,-168.75,-116.25,-85.41666666666667
12,-30,-112.5,33.75,-45,-138.75,-142.5,-157.5,-108.75,-77.91666666666667
13,-18.75,-82.5,37.5,-41.25,-131.25,-135,-146.25,-90,-67.5
14,-52.5,-97.5,26.25,-52.5,-142.5,-138.75,-153.75,-97.5,-78.75
15,-131.25,-135,18.75,-60,-146.25,-150,-165,-116.25,-98.33333333333333
16,-195,-138.75,30,-52.5,-142.5,-138.75,-157.5,-112.5,-100.83333333333333
17,-165,-67.5,33.75,-45,-131.25,-120,-146.25,-97.5,-82.08333333333333
18,-78.75,0,45,-26.25,-108.75,-101.25,-123.75,-75,-52.083333333333336
19,-11.25,18.75,60,-15,-97.5,-90,-116.25,-63.75,-35.0
20,22.5,7.5,56.25,-22.5,-105,-97.5,-127.5,-71.25,-37.5
21,52.5,-33.75,26.25,-52.5,-138.75,-135,-157.5,-93.75,-59.166666666666664
22,52.5,-75,18.75,-60,-153.75,-153.75,-168.75,-105,-71.66666666666667
23,7.5,-90,33.75,-52.5,-146.25,-142.5,-161.25,-97.5,-72.08333333333333
24,-33.75,-116.25,30,-60,-150,-150,-165,-101.25,-82.91666666666667
25,-45,-120,30,-60,-150,-146.25,-165,-101.25,-84.16666666666667
26,-45,-120,37.5,-52.5,-142.5,-138.75,-157.5,-97.5,-79.58333333333333
27,-71.25,-131.25,45,-48.75,-138.75,-131.25,-153.75,-93.75,-80.41666666666667
28,-135,-123.75,52.5,-45,-135,-120,-146.25,-90,-82.5
29,-172.5,-112.5,52.5,-48.75,-138.75,-120,-146.25,-90,-86.25
30,-127.5,-78.75,48.75,-52.5,-138.75,-120,-146.25,-86.25,-77.91666666666667
31,-78.75,-22.5,41.25,-52.5,-131.25,-116.25,-142.5,-78.75,-64.58333333333333
32,-41.25,7.5,30,-56.25,-138.75,-127.5,-153.75,-86.25,-62.916666666666664
33,-18.75,-60,7.5,-82.5,-172.5,-168.75,-191.25,-120,-89.58333333333333
34,-7.5,-127.5,0,-101.25,-191.25,-187.5,-206.25,-142.5,-107.08333333333333
35,3.75,-120,22.5,-78.75,-172.5,-165,-183.75,-120,-90.41666666666667
36,3.75,-90,30,-71.25,-161.25,-153.75,-168.75,-105,-79.58333333333333
37,-30,-86.25,15,-86.25,-176.25,-168.75,-183.75,-120,-92.91666666666667
38,-67.5,-123.75,7.5,-93.75,-187.5,-176.25,-195,-123.75,-106.66666666666667
39,-75,-123.75,41.25,-63.75,-153.75,-138.75,-161.25,-90,-85.0
40,-86.25,-71.25,71.25,-37.5,-123.75,-108.75,-135,-71.25,-62.5
41,-108.75,-52.5,67.5,-37.5,-123.75,-108.75,-138.75,-78.75,-64.58333333333333
42,-93.75,-52.5,45,-56.25,-146.25,-131.25,-161.25,-97.5,-77.08333333333333
43,-75,-33.75,18.75,-78.75,-165,-150,-176.25,-112.5,-85.83333333333333
44,-52.5,-37.5,0,-97.5,-183.75,-165,-187.5,-120,-93.75
45,-15,-63.75,-22.5,-120,-210,-191.25,-206.25,-135,-107.08333333333333
46,-15,-82.5,-18.75,-120,-210,-195,-210,-135,-109.58333333333333
47,-41.25,-101.25,3.75,-101.25,-195,-183.75,-198.75,-127.5,-105.0
48,-45,-108.75,18.75,-90,-187.5,-172.5,-191.25,-123.75,-100.0
49,-30,-101.25,33.75,-78.75,-176.25,-165,-183.75,-112.5,-90.41666666666667
50,-15,-90,37.5,-71.25,-168.75,-157.5,-172.5,-101.25,-82.08333333333333
51,-56.25,-86.25,52.5,-56.25,-153.75,-142.5,-157.5,-86.25,-76.25
52,-108.75,-90,67.5,-48.75,-138.75,-123.75,-146.25,-78.75,-74.16666666666667
53,-112.5,-86.25,63.75,-48.75,-138.75,-127.5,-150,-86.25,-76.25
54,-101.25,-82.5,48.75,-60,-153.75,-138.75,-165,-101.25,-83.75
55,-108.75,-82.5,33.75,-71.25,-165,-150,-176.25,-108.75,-92.08333333333333
56,-75,-86.25,26.25,-82.5,-172.5,-153.75,-176.25,-105,-91.66666666666667
57,7.5,-71.25,18.75,-90,-187.5,-172.5,-183.75,-112.5,-87.91666666666667
58,26.25,-52.5,26.25,-82.5,-187.5,-176.25,-187.5,-116.25,-83.33333333333333
59,-18.75,-60,33.75,-78.75,-183.75,-176.25,-191.25,-123.75,-88.75
60,-48.75,-63.75,41.25,-82.5,-187.5,-180,-195,-131.25,-94.16666666666667
61,-48.75,-48.75,48.75,-86.25,-191.25,-183.75,-198.75,-131.25,-93.33333333333333
62,-67.5,-60,52.5,-78.75,-180,-176.25,-195,-131.25,-92.91666666666667
63,-131.25,-67.5,71.25,-63.75,-168.75,-161.25,-180,-120,-91.25
64,-172.5,-22.5,90,-52.5,-157.5,-146.25,-161.25,-105,-80.83333333333333
65,-146.25,37.5,93.75,-45,-150,-135,-157.5,-97.5,-66.66666666666667
66,-71.25,90,90,-41.25,-142.5,-127.5,-150,-93.75,-49.583333333333336
67,-45,78.75,86.25,-41.25,-138.75,-123.75,-150,-90,-47.083333333333336
68,-56.25,-7.5,71.25,-60,-157.5,-146.25,-172.5,-105,-70.41666666666667
69,-33.75,-78.75,63.75,-67.5,-172.5,-165,-183.75,-116.25,-83.75
70,-7.5,-86.25,78.75,-56.25,-161.25,-157.5,-172.5,-101.25,-73.75
71,0,-75,120,-22.5,-131.25,-127.5,-138.75,-75,-50.0
72,7.5,-75,146.25,3.75,-105,-101.25,-116.25,-56.25,-32.916666666666664
73,-3.75,-75,150,3.75,-105,-101.25,-116.25,-60,-34.166666666666664
74,-33.75,-63.75,135,-11.25,-116.25,-112.5,-123.75,-67.5,-43.75
75,-75,-30,123.75,-18.75,-116.25,-105,-116.25,-60,-44.166666666666664
76,-112.5,15,120,-11.25,-105,-90,-105,-48.75,-37.5
77,-116.25,41.25,108.75,-11.25,-101.25,-86.25,-105,-45,-35.0
78,-90,30,82.5,-26.25,-112.5,-93.75,-112.5,-52.5,-41.666666666666664
79,-56.25,7.5,48.75,-41.25,-123.75,-108.75,-127.5,-60,-51.25
80,-3.75,15,26.25,-52.5,-135,-116.25,-135,-67.5,-52.083333333333336
81,45,3.75,3.75,-71.25,-153.75,-142.5,-153.75,-82.5,-61.25
82,78.75,0,-15,-86.25,-172.5,-165,-172.5,-97.5,-70.0
83,56.25,-3.75,-15,-90,-172.5,-161.25,-165,-93.75,-71.66666666666667
84,3.75,-26.25,-15,-101.25,-183.75,-172.5,-176.25,-101.25,-85.83333333333333
85,11.25,-7.5,-11.25,-101.25,-187.5,-176.25,-176.25,-105,-83.75
86,22.5,37.5,-15,-105,-187.5,-172.5,-176.25,-108.75,-78.33333333333333
87,-18.75,78.75,-15,-97.5,-176.25,-161.25,-165,-101.25,-72.91666666666667
88,-97.5,56.25,-11.25,-97.5,-168.75,-150,-157.5,-101.25,-80.83333333333333
89,-146.25,22.5,-11.25,-93.75,-168.75,-150,-161.25,-105,-90.41666666666667
90,-127.5,7.5,-11.25,-101.25,-176.25,-157.5,-168.75,-108.75,-93.75
91,-97.5,-37.5,11.25,-86.25,-165,-142.5,-157.5,-90,-85.0
92,-33.75,-60,30,-67.5,-150,-135,-146.25,-78.75,-71.25
93,60,-78.75,18.75,-78.75,-168.75,-157.5,-165,-93.75,-73.75
94,67.5,-127.5,7.5,-93.75,-183.75,-176.25,-183.75,-108.75,-88.75
95,11.25,-138.75,11.25,-93.75,-180,-176.25,-183.75,-112.5,-95.83333333333333
96,-22.5,-112.5,7.5,-101.25,-191.25,-183.75,-187.5,-120,-101.25
97,-45,-108.75,-7.5,-127.5,-213.75,-202.5,-206.25,-138.75,-116.66666666666667
98,-82.5,-112.5,-15,-138.75,-221.25,-213.75,-217.5,-146.25,-127.5
99,-138.75,-101.25,-3.75,-127.5,-210,-202.5,-210,-138.75,-125.83333333333333
100,-168.75,-78.75,7.5,-116.25,-198.75,-187.5,-198.75,-131.25,-119.16666666666667
101,-116.25,0,18.75,-108.75,-187.5,-172.5,-187.5,-123.75,-97.5
102,-56.25,56.25,15,-105,-183.75,-172.5,-183.75,-120,-83.33333333333333
103,-78.75,7.5,0,-123.75,-202.5,-187.5,-198.75,-131.25,-101.66666666666667
104,-75,-63.75,-7.5,-135,-217.5,-198.75,-206.25,-135,-115.41666666666667
105,-11.25,-138.75,-18.75,-150,-232.5,-217.5,-221.25,-146.25,-126.25
106,11.25,-187.5,-18.75,-146.25,-232.5,-217.5,-213.75,-142.5,-127.5
107,-30,-191.25,-7.5,-138.75,-221.25,-210,-206.25,-135,-126.66666666666667
108,-56.25,-176.25,-3.75,-138.75,-221.25,-221.25,-221.25,-146.25,-131.66666666666666
109,-52.5,-153.75,-7.5,-138.75,-225,-225,-225,-153.75,-131.25
110,-52.5,-127.5,-11.25,-142.5,-228.75,-221.25,-217.5,-150,-127.91666666666667
111,-93.75,-120,-3.75,-135,-217.5,-206.25,-202.5,-138.75,-124.16666666666667
112,-157.5,-131.25,3.75,-135,-213.75,-202.5,-202.5,-135,-130.41666666666666
113,-172.5,-97.5,3.75,-131.25,-210,-198.75,-202.5,-138.75,-127.5
114,-150,-71.25,-15,-142.5,-221.25,-206.25,-213.75,-150,-130.0
115,-116.25,-78.75,-7.5,-138.75,-213.75,-202.5,-210,-142.5,-123.33333333333333
116,-48.75,-78.75,-3.75,-131.25,-210,-198.75,-210,-135,-112.91666666666667
117,18.75,-82.5,-30,-157.5,-240,-228.75,-236.25,-161.25,-124.16666666666667
118,18.75,-105,-48.75,-176.25,-262.5,-251.25,-251.25,-176.25,-139.16666666666666
119,-30,-131.25,-33.75,-161.25,-247.5,-243.75,-240,-168.75,-139.58333333333334
120,-41.25,-138.75,-18.75,-150,-236.25,-232.5,-232.5,-161.25,-134.58333333333334
121,-37.5,-142.5,-15,-150,-240,-232.5,-236.25,-161.25,-135.0
122,-71.25,-157.5,-11.25,-150,-236.25,-228.75,-232.5,-157.5,-138.33333333333334
123,-123.75,-157.5,0,-142.5,-228.75,-213.75,-221.25,-146.25,-137.08333333333334
124,-150,-146.25,15,-131.25,-213.75,-195,-198.75,-131.25,-127.91666666666667
125,-157.5,-120,18.75,-123.75,-202.5,-183.75,-195,-131.25,-121.66666666666667
126,-150,-101.25,7.5,-131.25,-213.75,-195,-210,-146.25,-126.66666666666667
127,-135,-90,-7.5,-138.75,-225,-217.5,-232.5,-168.75,-135.0
128,-105,-67.5,-11.25,-138.75,-240,-236.25,-251.25,-187.5,-137.5
129,-18.75,-71.25,-3.75,-127.5,-255,-270,-288.75,-225,-140.0
130,11.25,-153.75,56.25,-63.75,-243.75,-285,-307.5,-243.75,-136.66666666666666
131,-26.25,-247.5,172.5,45,-202.5,-281.25,-307.5,-243.75,-121.25
132,-15,-255,281.25,138.75,-176.25,-288.75,-326.25,-266.25,-100.83333333333333
133,7.5,-217.5,352.5,210,-153.75,-292.5,-341.25,-277.5,-79.16666666666667
134,-11.25,-221.25,412.5,288.75,-112.5,-277.5,-326.25,-266.25,-57.083333333333336
135,-26.25,-217.5,480,393.75,-41.25,-225,-285,-228.75,-16.666666666666668
136,-18.75,-146.25,540,498.75,48.75,-146.25,-221.25,-172.5,42.5
137,3.75,-48.75,573.75,577.5,127.5,-75,-157.5,-112.5,98.75
138,37.5,26.25,585,630,187.5,-15,-105,-67.5,142.08333333333334
139,82.5,90,592.5,678.75,247.5,45,-48.75,-11.25,186.25
140,165,183.75,600,753.75,333.75,138.75,45,78.75,255.41666666666666
141,315,307.5,540,765,408.75,232.5,153.75,176.25,322.0833333333333
142,416.25,442.5,438.75,690,468.75,348.75,281.25,296.25,375.8333333333333
143,431.25,588.75,311.25,592.5,551.25,502.5,438.75,435,427.9166666666667
144,453.75,716.25,191.25,517.5,660,678.75,618.75,588.75,491.6666666666667
145,468.75,866.25,127.5,502.5,798.75,885,821.25,761.25,581.25
146,438.75,1046.25,33.75,412.5,892.5,1068.75,1023.75,937.5,650.4166666666666
147,405,1271.25,-165,150,892.5,1218.75,1226.25,1147.5,682.9166666666666
148,378.75,1488.75,-408.75,-198.75,851.25,1361.25,1428.75,1365,696.25
149,360,1608.75,-656.25,-540,810,1488.75,1593.75,1526.25,687.9166666666666
150,360,1672.5,-877.5,-798.75,810,1627.5,1751.25,1661.25,689.5833333333334
151,348.75,1713.75,-1001.25,-922.5,862.5,1770,1886.25,1755,712.5
152,330,1702.5,-1027.5,-948.75,941.25,1878.75,1965,1777.5,735.4166666666666
153,318.75,1601.25,-1091.25,-1001.25,971.25,1916.25,1968.75,1736.25,713.3333333333334
154,232.5,1462.5,-1215,-1125,900,1845,1882.5,1635,624.1666666666666
155,86.25,1282.5,-1260,-1215,750,1646.25,1680,1447.5,490.8333333333333
156,-18.75,1038.75,-1188.75,-1215,555,1338.75,1368.75,1173.75,339.1666666666667
157,-41.25,840,-1106.25,-1218.75,288.75,963.75,1016.25,892.5,181.66666666666666
158,-67.5,686.25,-1076.25,-1297.5,-67.5,521.25,637.5,618.75,-5.0
159,-198.75,487.5,-1050,-1380,-420,93.75,270,348.75,-205.41666666666666
160,-311.25,311.25,-963.75,-1357.5,-603.75,-153.75,33.75,165,-320.0
161,-315,195,-851.25,-1230,-596.25,-225,-75,52.5,-338.3333333333333
162,-270,112.5,-768.75,-1061.25,-506.25,-213.75,-127.5,-22.5,-317.5
163,-247.5,71.25,-708.75,-918.75,-423.75,-195,-150,-63.75,-292.9166666666667
164,-198.75,56.25,-645,-798.75,-375,-176.25,-138.75,-67.5,-260.4166666666667
165,-108.75,37.5,-600,-723.75,-371.25,-183.75,-146.25,-75,-241.25
166,-75,15,-532.5,-630,-348.75,-180,-138.75,-71.25,-217.91666666666666
167,-105,-18.75,-427.5,-491.25,-270,-127.5,-101.25,-48.75,-176.66666666666666
168,-93.75,3.75,-337.5,-367.5,-191.25,-75,-60,-18.75,-126.66666666666667
169,-56.25,48.75,-285,-292.5,-150,-56.25,-48.75,-3.75,-93.75
170,-52.5,63.75,-236.25,-225,-116.25,-45,-45,0,-72.91666666666667
171,-75,93.75,-172.5,-165,-82.5,-30,-41.25,3.75,-52.083333333333336
172,-108.75,146.25,-105,-108.75,-48.75,-7.5,-26.25,7.5,-27.916666666666668
173,-116.25,142.5,-60,-71.25,-30,3.75,-22.5,7.5,-16.25
174,-108.75,60,-37.5,-48.75,-30,0,-30,3.75,-21.25
175,-101.25,11.25,-15,-30,-26.25,-3.75,-33.75,0,-22.083333333333332
176,-52.5,11.25,-3.75,-18.75,-26.25,-15,-45,-15,-18.333333333333332
177,37.5,-22.5,-3.75,-15,-41.25,-37.5,-67.5,-33.75,-20.416666666666668
178,56.25,-75,-3.75,-18.75,-56.25,-60,-86.25,-48.75,-32.5
179,-3.75,-97.5,7.5,-11.25,-56.25,-60,-86.25,-48.75,-39.583333333333336
180,-30,-101.25,15,-7.5,-63.75,-67.5,-90,-52.5,-44.166666666666664
181,-11.25,-93.75,18.75,-7.5,-71.25,-71.25,-93.75,-56.25,-42.916666666666664
182,-18.75,-86.25,22.5,-3.75,-71.25,-75,-93.75,-56.25,-42.5
183,-93.75,-90,30,0,-75,-82.5,-105,-67.5,-53.75
184,-161.25,-63.75,37.5,7.5,-71.25,-82.5,-112.5,-75,-57.916666666666664
185,-146.25,-11.25,41.25,11.25,-67.5,-78.75,-116.25,-82.5,-50.0
186,-90,33.75,37.5,11.25,-71.25,-86.25,-120,-86.25,-41.25
187,-37.5,67.5,33.75,15,-75,-86.25,-127.5,-86.25,-32.916666666666664
188,-15,41.25,18.75,7.5,-90,-105,-142.5,-97.5,-42.5
189,7.5,-41.25,0,-11.25,-112.5,-131.25,-157.5,-112.5,-62.083333333333336
190,7.5,-112.5,3.75,-7.5,-116.25,-135,-157.5,-108.75,-69.58333333333333
191,-3.75,-112.5,30,18.75,-93.75,-112.5,-131.25,-86.25,-54.583333333333336
192,-11.25,-97.5,52.5,41.25,-71.25,-86.25,-108.75,-60,-37.916666666666664
193,-7.5,-105,67.5,56.25,-56.25,-75,-101.25,-60,-31.25
194,-3.75,-105,75,63.75,-52.5,-71.25,-101.25,-67.5,-29.166666666666668
195,-26.25,-86.25,71.25,56.25,-60,-75,-105,-75,-33.333333333333336
196,-63.75,-52.5,71.25,56.25,-63.75,-75,-105,-75,-34.166666666666664
197,-108.75,-37.5,71.25,60,-56.25,-71.25,-105,-75,-35.833333333333336
198,-116.25,-45,67.5,60,-56.25,-71.25,-108.75,-75,-38.333333333333336
199,-67.5,-33.75,63.75,63.75,-56.25,-71.25,-105,-67.5,-30.416666666666668
200,-7.5,-7.5,60,60,-56.25,-71.25,-105,-67.5,-21.666666666666668
201,63.75,0,37.5,41.25,-78.75,-97.5,-131.25,-86.25,-27.916666666666668
202,82.5,-7.5,22.5,33.75,-93.75,-116.25,-142.5,-97.5,-35.416666666666664
203,33.75,-15,30,37.5,-93.75,-116.25,-142.5,-97.5,-40.416666666666664
204,3.75,-11.25,30,37.5,-93.75,-120,-146.25,-108.75,-45.416666666666664
205,15,7.5,18.75,33.75,-97.5,-120,-150,-112.5,-45.0
206,45,37.5,22.5,41.25,-90,-112.5,-138.75,-101.25,-32.916666666666664
207,30,33.75,56.25,71.25,-60,-78.75,-105,-63.75,-12.916666666666666
208,-52.5,-18.75,78.75,97.5,-33.75,-48.75,-78.75,-41.25,-10.833333333333334
209,-123.75,-56.25,82.5,101.25,-26.25,-45,-82.5,-48.75,-22.083333333333332
210,-93.75,-15,67.5,93.75,-37.5,-56.25,-97.5,-60,-22.083333333333332
211,-22.5,37.5,67.5,93.75,-33.75,-52.5,-90,-52.5,-5.833333333333333
212,18.75,11.25,63.75,97.5,-30,-52.5,-90,-52.5,-3.75
213,71.25,-11.25,56.25,93.75,-37.5,-60,-97.5,-56.25,-4.583333333333333
214,67.5,-41.25,48.75,86.25,-45,-67.5,-101.25,-60,-12.5
215,18.75,-75,60,97.5,-37.5,-60,-90,-52.5,-15.416666666666666
216,22.5,-41.25,67.5,105,-26.25,-52.5,-78.75,-41.25,-5.0
217,22.5,-18.75,60,101.25,-33.75,-60,-86.25,-45,-6.666666666666667
218,11.25,-22.5,60,108.75,-26.25,-48.75,-78.75,-41.25,-4.166666666666667
219,-7.5,-7.5,86.25,135,3.75,-22.5,-52.5,-18.75,12.916666666666666
220,-56.25,11.25,93.75,138.75,7.5,-11.25,-48.75,-22.5,12.5
221,-86.25,22.5,78.75,131.25,0,-15,-52.5,-30,5.416666666666667
222,-52.5,30,71.25,127.5,0,-18.75,-56.25,-30,7.916666666666667
223,-22.5,11.25,71.25,135,3.75,-15,-56.25,-26.25,11.25
224,-11.25,-30,71.25,138.75,7.5,-15,-52.5,-18.75,10.0
225,45,-48.75,56.25,123.75,-7.5,-33.75,-71.25,-30,3.75
226,86.25,-56.25,41.25,116.25,-22.5,-52.5,-78.75,-37.5,-0.4166666666666667
227,48.75,-71.25,41.25,116.25,-22.5,-48.75,-71.25,-37.5,-5.0
228,26.25,-52.5,45,123.75,-18.75,-41.25,-71.25,-37.5,-2.9166666666666665
229,41.25,-30,48.75,123.75,-15,-41.25,-71.25,-37.5,2.0833333333333335
230,15,-63.75,52.5,131.25,-11.25,-37.5,-67.5,-33.75,-1.6666666666666667
231,-7.5,-60,60,142.5,3.75,-18.75,-52.5,-22.5,5.0
232,-18.75,-18.75,86.25,176.25,41.25,18.75,-18.75,7.5,30.416666666666668
233,-37.5,7.5,90,180,48.75,22.5,-22.5,7.5,32.916666666666664
234,-11.25,60,86.25,180,45,18.75,-26.25,3.75,39.583333333333336
235,52.5,123.75,86.25,191.25,56.25,33.75,-15,11.25,60.0
236,86.25,123.75,78.75,187.5,56.25,30,-15,3.75,61.25
237,120,78.75,45,168.75,33.75,7.5,-33.75,-7.5,45.833333333333336
238,146.25,60,41.25,165,26.25,-3.75,-37.5,-7.5,43.333333333333336
239,120,52.5,52.5,172.5,33.75,0,-30,-7.5,43.75
240,90,7.5,63.75,183.75,41.25,11.25,-22.5,0,41.666666666666664
241,82.5,-41.25,75,202.5,56.25,30,-3.75,18.75,46.666666666666664
242,67.5,-41.25,86.25,210,67.5,41.25,7.5,30,52.083333333333336
243,48.75,11.25,93.75,221.25,75,52.5,18.75,41.25,62.5
244,15,37.5,93.75,228.75,90,63.75,30,48.75,67.5
245,-15,22.5,101.25,232.5,93.75,67.5,30,45,64.16666666666667
246,37.5,60,116.25,247.5,101.25,75,37.5,52.5,80.83333333333333
247,105,120,116.25,262.5,116.25,90,52.5,71.25,103.75
248,123.75,112.5,86.25,240,93.75,71.25,30,56.25,90.41666666666667
249,168.75,75,52.5,206.25,60,30,-11.25,18.75,66.66666666666667
250,198.75,71.25,37.5,195,45,11.25,-22.5,7.5,60.416666666666664
251,142.5,60,52.5,206.25,52.5,22.5,-7.5,18.75,60.833333333333336
252,105,48.75,63.75,217.5,67.5,37.5,11.25,33.75,65.0
253,108.75,60,67.5,221.25,67.5,45,15,37.5,69.16666666666667
254,105,75,67.5,213.75,60,37.5,7.5,26.25,65.83333333333333
255,75,93.75,60,213.75,60,30,0,18.75,61.25
256,48.75,112.5,67.5,228.75,75,48.75,18.75,37.5,70.83333333333333
257,67.5,135,93.75,255,101.25,82.5,48.75,71.25,95.0
258,93.75,138.75,93.75,251.25,101.25,78.75,45,67.5,96.66666666666667
259,97.5,138.75,78.75,240,82.5,60,26.25,52.5,86.25
260,138.75,157.5,63.75,228.75,67.5,41.25,11.25,45,83.75
261,198.75,142.5,52.5,213.75,48.75,22.5,-3.75,37.5,79.16666666666667
262,213.75,105,56.25,213.75,45,18.75,-7.5,33.75,75.41666666666667
263,176.25,86.25,56.25,225,52.5,26.25,3.75,37.5,73.75
264,131.25,56.25,56.25,217.5,45,22.5,3.75,37.5,63.333333333333336
265,146.25,52.5,78.75,228.75,56.25,33.75,15,52.5,73.75
266,165,56.25,93.75,240,67.5,45,26.25,63.75,84.16666666666667
267,123.75,48.75,86.25,232.5,56.25,37.5,18.75,52.5,72.91666666666667
268,71.25,56.25,97.5,240,63.75,56.25,33.75,67.5,76.25
269,71.25,52.5,123.75,266.25,93.75,90,63.75,93.75,95.0
270,78.75,30,127.5,266.25,93.75,86.25,60,86.25,92.08333333333333
271,56.25,15,108.75,240,67.5,60,33.75,63.75,71.66666666666667
272,93.75,52.5,86.25,221.25,45,37.5,15,48.75,66.66666666666667
273,195,93.75,67.5,202.5,30,18.75,0,37.5,71.66666666666667
274,221.25,60,60,195,11.25,-3.75,-18.75,30,61.666666666666664
275,157.5,7.5,86.25,206.25,18.75,0,-11.25,37.5,55.833333333333336
276,146.25,15,101.25,213.75,26.25,7.5,0,45,61.666666666666664
277,161.25,56.25,97.5,202.5,15,0,-7.5,33.75,62.083333333333336
278,146.25,90,78.75,180,-7.5,-15,-18.75,22.5,52.916666666666664
279,112.5,90,82.5,176.25,-11.25,-11.25,-15,26.25,50.0
280,93.75,112.5,108.75,198.75,15,18.75,15,48.75,67.91666666666667
281,116.25,150,135,221.25,41.25,41.25,33.75,63.75,89.16666666666667
282,120,123.75,131.25,210,30,22.5,11.25,45,77.08333333333333
283,105,86.25,116.25,191.25,11.25,0,-15,26.25,57.916666666666664
284,101.25,75,108.75,183.75,0,-11.25,-22.5,22.5,50.833333333333336
285,142.5,63.75,101.25,168.75,-15,-30,-37.5,11.25,45.0
286,165,26.25,93.75,150,-41.25,-60,-63.75,-11.25,28.75
287,127.5,-15,101.25,142.5,-48.75,-63.75,-67.5,-18.75,17.5
288,105,-26.25,112.5,146.25,-41.25,-52.5,-48.75,-3.75,21.25
289,108.75,-18.75,112.5,142.5,-48.75,-60,-52.5,0,20.416666666666668
290,101.25,-7.5,120,138.75,-52.5,-67.5,-63.75,-11.25,17.5
291,56.25,22.5,127.5,138.75,-56.25,-71.25,-71.25,-26.25,13.333333333333334
292,-18.75,71.25,123.75,127.5,-60,-71.25,-75,-33.75,7.083333333333333
293,-67.5,90,112.5,108.75,-75,-86.25,-90,-45,-5.833333333333333
294,-37.5,112.5,97.5,90,-86.25,-101.25,-101.25,-48.75,-8.333333333333334
295,15,142.5,105,97.5,-78.75,-90,-90,-37.5,7.083333333333333
296,45,112.5,105,93.75,-82.5,-97.5,-97.5,-45,3.75
297,82.5,48.75,86.25,67.5,-105,-120,-108.75,-45,-10.416666666666666
298,101.25,15,78.75,52.5,-116.25,-123.75,-105,-48.75,-16.25
299,67.5,-3.75,86.25,60,-112.5,-127.5,-123.75,-75,-25.416666666666668
300,18.75,-41.25,82.5,60,-112.5,-135,-135,-75,-37.5
301,-11.25,-67.5,75,37.5,-131.25,-146.25,-142.5,-97.5,-53.75
302,26.25,-41.25,90,37.5,-123.75,-135,-131.25,-90,-40.833333333333336
303,56.25,-15,131.25,75,-82.5,-90,-82.5,-26.25,-3.75
304,-3.75,-41.25,146.25,86.25,-71.25,-75,-75,-26.25,-6.666666666666667
305,-75,-60,138.75,71.25,-82.5,-90,-97.5,-56.25,-27.916666666666668
306,-86.25,-56.25,131.25,63.75,-90,-97.5,-101.25,-63.75,-33.333333333333336
307,-63.75,-67.5,123.75,56.25,-93.75,-97.5,-97.5,-52.5,-32.5
308,-37.5,-93.75,105,37.5,-112.5,-112.5,-108.75,-56.25,-42.083333333333336
309,22.5,-97.5,75,7.5,-142.5,-146.25,-135,-82.5,-55.416666666666664
310,33.75,-112.5,56.25,-15,-165,-176.25,-165,-105,-72.08333333333333
311,-3.75,-135,63.75,-15,-165,-180,-172.5,-108.75,-79.58333333333333
312,-30,-123.75,63.75,-22.5,-168.75,-180,-172.5,-112.5,-82.91666666666667
313,-45,-108.75,56.25,-30,-176.25,-183.75,-176.25,-123.75,-87.5
314,-15,-75,52.5,-33.75,-180,-187.5,-180,-127.5,-82.91666666666667
315,-26.25,-18.75,56.25,-33.75,-180,-183.75,-176.25,-123.75,-76.25
316,-97.5,3.75,63.75,-37.5,-176.25,-176.25,-172.5,-123.75,-79.58333333333333
317,-135,0,63.75,-37.5,-176.25,-172.5,-172.5,-123.75,-83.75
318,-120,-11.25,45,-56.25,-191.25,-187.5,-187.5,-135,-93.75
319,-63.75,-7.5,45,-56.25,-187.5,-183.75,-183.75,-127.5,-85.0
320,-15,-3.75,41.25,-52.5,-183.75,-180,-180,-123.75,-77.5
321,30,-22.5,33.75,-60,-191.25,-195,-191.25,-131.25,-80.83333333333333
322,26.25,-60,22.5,-78.75,-213.75,-213.75,-206.25,-142.5,-96.25
323,-41.25,-93.75,26.25,-78.75,-210,-206.25,-191.25,-131.25,-102.91666666666667
324,-63.75,-116.25,33.75,-71.25,-198.75,-191.25,-176.25,-116.25,-100.0
325,-52.5,-123.75,41.25,-67.5,-191.25,-183.75,-168.75,-116.25,-95.83333333333333
326,-48.75,-127.5,45,-67.5,-195,-187.5,-176.25,-123.75,-97.91666666666667
327,-63.75,-112.5,52.5,-56.25,-183.75,-176.25,-168.75,-116.25,-91.66666666666667
328,-101.25,-82.5,67.5,-41.25,-165,-161.25,-150,-105,-82.08333333333333
329,-142.5,-63.75,71.25,-45,-168.75,-157.5,-150,-105,-84.58333333333333
330,-131.25,-37.5,60,-56.25,-176.25,-165,-165,-112.5,-87.08333333333333
331,-93.75,-7.5,52.5,-60,-176.25,-168.75,-168.75,-116.25,-82.08333333333333
332,-67.5,-18.75,45,-63.75,-180,-172.5,-168.75,-112.5,-82.08333333333333
333,-22.5,-75,26.25,-86.25,-202.5,-195,-183.75,-120,-95.41666666666667
334,0,-116.25,7.5,-97.5,-221.25,-217.5,-202.5,-138.75,-109.58333333333333
335,-26.25,-116.25,3.75,-93.75,-221.25,-221.25,-206.25,-142.5,-113.75
336,-41.25,-105,11.25,-97.5,-225,-225,-210,-150,-115.83333333333333
337,-33.75,-97.5,22.5,-93.75,-221.25,-221.25,-213.75,-153.75,-112.5
338,-30,-112.5,26.25,-82.5,-210,-202.5,-195,-135,-104.58333333333333
339,-63.75,-161.25,45,-67.5,-195,-180,-168.75,-112.5,-100.41666666666667
340,-123.75,-161.25,71.25,-37.5,-161.25,-150,-138.75,-86.25,-87.5
341,-157.5,-101.25,75,-33.75,-150,-142.5,-135,-78.75,-80.41666666666667
342,-142.5,-45,56.25,-52.5,-165,-165,-161.25,-108.75,-87.08333333333333
343,-108.75,-33.75,41.25,-67.5,-180,-172.5,-176.25,-123.75,-91.25
344,-78.75,-52.5,33.75,-67.5,-183.75,-176.25,-176.25,-127.5,-92.08333333333333
345,-15,-56.25,11.25,-86.25,-202.5,-198.75,-191.25,-135,-97.08333333333333
346,11.25,-67.5,-7.5,-108.75,-225,-221.25,-210,-150,-108.75
347,-18.75,-67.5,-7.5,-108.75,-225,-217.5,-206.25,-150,-111.25
348,-37.5,-52.5,11.25,-93.75,-213.75,-206.25,-195,-146.25,-103.75
349,-30,-45,22.5,-86.25,-206.25,-198.75,-183.75,-135,-95.83333333333333
350,-18.75,-26.25,22.5,-86.25,-206.25,-198.75,-180,-127.5,-91.25
351,-48.75,-18.75,22.5,-82.5,-198.75,-187.5,-168.75,-116.25,-88.75
352,-93.75,-26.25,37.5,-67.5,-183.75,-168.75,-153.75,-105,-84.58333333333333
353,-123.75,-30,52.5,-52.5,-168.75,-157.5,-150,-101.25,-81.25
354,-135,-48.75,48.75,-52.5,-168.75,-165,-161.25,-108.75,-87.91666666666667
355,-131.25,-67.5,45,-56.25,-168.75,-165,-165,-112.5,-91.25
356,-93.75,-75,45,-56.25,-172.5,-165,-168.75,-116.25,-89.16666666666667
357,0,-71.25,18.75,-71.25,-187.5,-183.75,-180,-120,-88.33333333333333
358,26.25,-67.5,-11.25,-90,-210,-210,-202.5,-135,-100.0
359,-33.75,-93.75,0,-93.75,-213.75,-210,-202.5,-138.75,-109.58333333333333
360,-60,-112.5,15,-86.25,-206.25,-202.5,-191.25,-131.25,-108.33333333333333
361,-48.75,-90,22.5,-71.25,-195,-191.25,-180,-123.75,-97.5
362,-41.25,-86.25,33.75,-60,-180,-176.25,-165,-105,-86.66666666666667
363,-63.75,-101.25,60,-37.5,-157.5,-150,-138.75,-78.75,-74.16666666666667
364,-90,-97.5,75,-18.75,-138.75,-127.5,-120,-63.75,-64.58333333333333
365,-123.75,-93.75,75,-15,-131.25,-123.75,-120,-67.5,-66.66666666666667
366,-142.5,-105,60,-37.5,-150,-138.75,-135,-86.25,-81.66666666666667
367,-123.75,-90,45,-45,-161.25,-150,-146.25,-93.75,-85.0
368,-56.25,-26.25,41.25,-41.25,-157.5,-146.25,-142.5,-90,-68.75
369,22.5,-3.75,26.25,-56.25,-172.5,-161.25,-161.25,-101.25,-67.5
370,30,-45,3.75,-78.75,-195,-191.25,-183.75,-123.75,-87.08333333333333
371,-18.75,-82.5,7.5,-78.75,-198.75,-191.25,-183.75,-127.5,-97.08333333333333
372,-45,-90,18.75,-71.25,-191.25,-180,-168.75,-116.25,-93.75
373,-60,-97.5,22.5,-71.25,-191.25,-180,-165,-105,-94.16666666666667
374,-37.5,-86.25,30,-60,-180,-176.25,-161.25,-105,-86.25
375,-33.75,-60,37.5,-52.5,-168.75,-165,-157.5,-97.5,-77.5
376,-93.75,-33.75,45,-52.5,-168.75,-161.25,-153.75,-93.75,-79.16666666666667
377,-142.5,-18.75,52.5,-45,-161.25,-150,-142.5,-86.25,-77.08333333333333
378,-131.25,-11.25,41.25,-52.5,-165,-150,-142.5,-90,-77.91666666666667
379,-135,-33.75,18.75,-71.25,-180,-161.25,-157.5,-105,-91.66666666666667
380,-127.5,-60,0,-86.25,-198.75,-180,-180,-123.75,-106.25
381,-26.25,-52.5,-7.5,-90,-206.25,-195,-198.75,-142.5,-102.08333333333333
382,52.5,-48.75,-3.75,-90,-202.5,-195,-191.25,-135,-90.41666666666667
383,-3.75,-75,7.5,-75,-187.5,-176.25,-168.75,-112.5,-87.91666666666667
384,-60,-97.5,22.5,-63.75,-180,-165,-153.75,-101.25,-88.75
385,-33.75,-82.5,30,-60,-180,-161.25,-150,-105,-82.5
386,-7.5,-63.75,33.75,-56.25,-172.5,-157.5,-146.25,-101.25,-74.58333333333333
387,-41.25,-78.75,33.75,-56.25,-172.5,-157.5,-150,-101.25,-80.41666666666667
388,-86.25,-67.5,45,-48.75,-165,-150,-142.5,-93.75,-78.75
389,-120,-11.25,52.5,-41.25,-157.5,-135,-131.25,-75,-68.75
390,-120,37.5,37.5,-52.5,-161.25,-138.75,-138.75,-82.5,-68.75
391,-90,30,18.75,-67.5,-180,-157.5,-157.5,-105,-78.75
392,-56.25,7.5,7.5,-75,-183.75,-168.75,-165,-101.25,-81.66666666666667
393,-11.25,-63.75,-15,-93.75,-206.25,-195,-187.5,-123.75,-99.58333333333333
394,18.75,-135,-18.75,-105,-217.5,-202.5,-195,-135,-110.0
395,11.25,-120,0,-93.75,-206.25,-187.5,-172.5,-116.25,-98.33333333333333
396,0,-82.5,18.75,-78.75,-195,-176.25,-165,-105,-87.08333333333333
397,-33.75,-97.5,22.5,-75,-191.25,-176.25,-168.75,-112.5,-92.5
398,-86.25,-142.5,18.75,-71.25,-191.25,-176.25,-168.75,-116.25,-103.75
399,-131.25,-146.25,3.75,-90,-206.25,-191.25,-172.5,-123.75,-117.5
400,-180,-105,0,-101.25,-213.75,-195,-176.25,-127.5,-122.08333333333333
401,-180,-48.75,18.75,-93.75,-202.5,-183.75,-172.5,-112.5,-108.33333333333333
402,-127.5,-30,37.5,-67.5,-176.25,-157.5,-150,-90,-84.58333333333333
403,-101.25,-52.5,41.25,-63.75,-172.5,-150,-150,-93.75,-82.5
404,-90,-60,22.5,-75,-183.75,-165,-165,-105,-91.25
405,-7.5,-41.25,-3.75,-101.25,-210,-187.5,-183.75,-120,-95.0
406,71.25,-33.75,-11.25,-112.5,-221.25,-210,-198.75,-135,-94.58333333333333
407,30,-56.25,3.75,-101.25,-213.75,-206.25,-191.25,-127.5,-95.83333333333333
408,-33.75,-71.25,3.75,-105,-217.5,-206.25,-191.25,-127.5,-105.41666666666667
409,-33.75,-63.75,-7.5,-116.25,-232.5,-213.75,-198.75,-131.25,-110.83333333333333
410,-30,-71.25,0,-108.75,-221.25,-202.5,-183.75,-120,-104.16666666666667
411,-60,-78.75,15,-86.25,-198.75,-176.25,-157.5,-93.75,-92.91666666666667
412,-101.25,-60,33.75,-67.5,-176.25,-150,-135,-82.5,-82.08333333333333
413,-146.25,-63.75,37.5,-71.25,-176.25,-150,-146.25,-93.75,-90.0
414,-153.75,-75,22.5,-93.75,-195,-172.5,-172.5,-116.25,-106.25
415,-135,-101.25,7.5,-105,-206.25,-183.75,-180,-127.5,-114.58333333333333
416,-108.75,-120,0,-116.25,-217.5,-191.25,-187.5,-127.5,-118.75
417,-33.75,-105,-22.5,-135,-240,-213.75,-202.5,-138.75,-121.25
418,11.25,-120,-37.5,-146.25,-251.25,-228.75,-217.5,-153.75,-127.08333333333333
419,-30,-146.25,-45,-150,-255,-232.5,-221.25,-157.5,-137.5
420,-56.25,-127.5,-37.5,-150,-255,-225,-210,-146.25,-134.16666666666666
421,-30,-90,-15,-135,-240,-213.75,-198.75,-135,-117.5
422,-15,-63.75,-11.25,-135,-236.25,-213.75,-195,-135,-111.66666666666667
423,-41.25,-52.5,0,-120,-225,-198.75,-183.75,-120,-104.58333333333333
424,-93.75,-48.75,26.25,-97.5,-202.5,-176.25,-161.25,-105,-95.41666666666667
425,-135,-45,33.75,-93.75,-198.75,-168.75,-157.5,-97.5,-95.83333333333333
426,-131.25,-37.5,22.5,-105,-206.25,-180,-168.75,-105,-101.25
427,-90,-30,0,-127.5,-225,-198.75,-195,-123.75,-110.0
428,-86.25,-52.5,-18.75,-142.5,-243.75,-221.25,-217.5,-138.75,-124.58333333333333
429,-45,-75,-33.75,-153.75,-258.75,-240,-228.75,-146.25,-131.25
430,0,-93.75,-22.5,-142.5,-255,-236.25,-217.5,-138.75,-122.91666666666667
431,-11.25,-97.5,0,-131.25,-240,-217.5,-191.25,-120,-112.08333333333333
432,-30,-108.75,3.75,-131.25,-228.75,-198.75,-172.5,-105,-107.91666666666667
433,-37.5,-116.25,-3.75,-127.5,-225,-198.75,-176.25,-108.75,-110.41666666666667
434,-63.75,-112.5,-7.5,-127.5,-232.5,-210,-191.25,-120,-118.33333333333333
435,-108.75,-127.5,-7.5,-131.25,-240,-213.75,-195,-131.25,-128.33333333333334
436,-153.75,-138.75,7.5,-123.75,-228.75,-202.5,-187.5,-127.5,-128.33333333333334
437,-161.25,-101.25,26.25,-108.75,-210,-180,-165,-105,-111.66666666666667
438,-120,-48.75,18.75,-108.75,-210,-180,-161.25,-97.5,-100.83333333333333
439,-90,-45,-3.75,-120,-221.25,-187.5,-172.5,-112.5,-105.83333333333333
440,-82.5,-60,-11.25,-127.5,-228.75,-198.75,-187.5,-123.75,-113.33333333333333
441,-30,-48.75,-30,-153.75,-258.75,-236.25,-221.25,-146.25,-125.0
442,18.75,-41.25,-52.5,-176.25,-281.25,-262.5,-240,-157.5,-132.5
443,-15,-78.75,-41.25,-168.75,-273.75,-255,-225,-146.25,-133.75
444,-60,-101.25,-18.75,-146.25,-255,-232.5,-202.5,-127.5,-127.08333333333333
445,-75,-93.75,-7.5,-127.5,-240,-217.5,-191.25,-120,-119.16666666666667
446,-56.25,-63.75,11.25,-112.5,-228.75,-210,-191.25,-123.75,-108.33333333333333
447,-52.5,-18.75,41.25,-101.25,-210,-187.5,-172.5,-105,-89.58333333333333
448,-131.25,-37.5,60,-90,-195,-168.75,-150,-86.25,-88.75
449,-176.25,-60,63.75,-82.5,-187.5,-157.5,-146.25,-90,-92.91666666666667
450,-135,-37.5,63.75,-82.5,-183.75,-153.75,-142.5,-86.25,-84.16666666666667
451,-112.5,-22.5,60,-82.5,-187.5,-153.75,-138.75,-78.75,-79.58333333333333
452,-97.5,-18.75,63.75,-86.25,-191.25,-161.25,-153.75,-86.25,-81.25
453,-30,-22.5,48.75,-101.25,-210,-191.25,-183.75,-108.75,-88.75
454,11.25,-37.5,18.75,-123.75,-236.25,-221.25,-198.75,-127.5,-101.66666666666667
455,-26.25,-48.75,11.25,-131.25,-247.5,-228.75,-206.25,-135,-112.5
456,-52.5,-45,18.75,-131.25,-247.5,-232.5,-210,-138.75,-115.41666666666667
457,-56.25,-26.25,26.25,-127.5,-247.5,-228.75,-210,-135,-111.66666666666667
458,-86.25,-15,37.5,-120,-243.75,-225,-202.5,-131.25,-109.58333333333333
459,-93.75,-3.75,63.75,-97.5,-217.5,-198.75,-187.5,-116.25,-94.58333333333333
460,-82.5,26.25,105,-56.25,-176.25,-157.5,-142.5,-78.75,-62.5
461,-97.5,48.75,116.25,-41.25,-161.25,-135,-123.75,-56.25,-50.0
462,-101.25,63.75,101.25,-48.75,-161.25,-138.75,-127.5,-60,-52.5
463,-105,60,86.25,-63.75,-168.75,-142.5,-135,-67.5,-59.583333333333336
464,-97.5,33.75,67.5,-67.5,-172.5,-142.5,-127.5,-63.75,-63.333333333333336
465,-26.25,-3.75,33.75,-86.25,-187.5,-157.5,-142.5,-71.25,-71.25
466,15,-67.5,0,-108.75,-213.75,-187.5,-165,-86.25,-90.41666666666667
467,0,-82.5,-11.25,-112.5,-213.75,-187.5,-165,-90,-95.83333333333333
468,11.25,-11.25,-11.25,-108.75,-206.25,-183.75,-161.25,-86.25,-84.16666666666667
469,18.75,18.75,-18.75,-116.25,-221.25,-195,-172.5,-93.75,-86.66666666666667
470,3.75,-7.5,-26.25,-123.75,-225,-202.5,-180,-97.5,-95.41666666666667
471,-3.75,-22.5,-11.25,-112.5,-213.75,-187.5,-165,-86.25,-89.16666666666667
472,-48.75,-33.75,0,-101.25,-202.5,-165,-142.5,-67.5,-84.58333333333333
473,-123.75,-52.5,-22.5,-123.75,-221.25,-176.25,-150,-78.75,-105.41666666666667
474,-123.75,-45,-41.25,-135,-228.75,-180,-161.25,-90,-111.66666666666667
475,-48.75,-3.75,-41.25,-127.5,-213.75,-172.5,-161.25,-90,-95.41666666666667
476,22.5,30,-18.75,-108.75,-198.75,-157.5,-146.25,-71.25,-72.08333333333333
477,33.75,-26.25,-37.5,-127.5,-221.25,-183.75,-165,-90,-90.83333333333333
478,11.25,-82.5,-67.5,-165,-262.5,-225,-202.5,-131.25,-125.0
479,-11.25,-52.5,-48.75,-161.25,-258.75,-225,-198.75,-123.75,-120.0
480,7.5,-15,-26.25,-138.75,-240,-202.5,-180,-105,-100.0
481,30,-7.5,-22.5,-135,-236.25,-198.75,-176.25,-101.25,-94.16666666666667
482,-7.5,-26.25,-18.75,-138.75,-240,-202.5,-180,-105,-102.08333333333333
483,-78.75,-56.25,-22.5,-146.25,-247.5,-213.75,-191.25,-120,-119.58333333333333
484,-123.75,-45,-18.75,-146.25,-243.75,-213.75,-195,-123.75,-123.33333333333333
485,-116.25,-7.5,-3.75,-131.25,-228.75,-195,-180,-108.75,-107.91666666666667
486,-93.75,0,0,-127.5,-228.75,-187.5,-176.25,-105,-102.08333333333333
487,-93.75,-22.5,-11.25,-138.75,-236.25,-198.75,-187.5,-112.5,-111.25
488,-75,-30,-26.25,-153.75,-251.25,-217.5,-202.5,-123.75,-120.0
489,-15,-52.5,-52.5,-183.75,-281.25,-247.5,-228.75,-142.5,-133.75
490,7.5,-108.75,-63.75,-191.25,-288.75,-258.75,-243.75,-153.75,-144.58333333333334
491,-37.5,-165,-45,-176.25,-281.25,-247.5,-232.5,-150,-148.33333333333334
492,-60,-165,-37.5,-176.25,-288.75,-251.25,-228.75,-153.75,-151.25
493,-52.5,-120,-33.75,-176.25,-292.5,-258.75,-236.25,-157.5,-147.5
494,-67.5,-112.5,-45,-198.75,-307.5,-273.75,-247.5,-168.75,-157.91666666666666
495,-97.5,-131.25,-52.5,-202.5,-303.75,-270,-243.75,-165,-162.91666666666666
496,-135,-123.75,-30,-165,-273.75,-240,-225,-150,-149.16666666666666
497,-146.25,-90,-7.5,-146.25,-255,-217.5,-210,-142.5,-135.0
498,-120,-63.75,-30,-168.75,-273.75,-228.75,-221.25,-150,-139.58333333333334
499,-116.25,-33.75,-48.75,-183.75,-285,-240,-228.75,-150,-142.91666666666666
500,-123.75,-37.5,-48.75,-183.75,-281.25,-240,-225,-146.25,-142.91666666666666
501,-75,-82.5,-71.25,-202.5,-307.5,-270,-258.75,-176.25,-160.41666666666666
502,-11.25,-93.75,-82.5,-210,-322.5,-285,-266.25,-183.75,-161.66666666666666
503,18.75,-75,-56.25,-187.5,-296.25,-262.5,-243.75,-157.5,-140.0
504,-11.25,-101.25,-37.5,-168.75,-281.25,-247.5,-228.75,-142.5,-135.41666666666666
505,-48.75,-146.25,-37.5,-172.5,-285,-247.5,-228.75,-142.5,-145.41666666666666
506,-82.5,-191.25,-33.75,-180,-288.75,-251.25,-232.5,-142.5,-155.83333333333334
507,-108.75,-202.5,-22.5,-168.75,-281.25,-243.75,-225,-138.75,-154.58333333333334
508,-123.75,-172.5,-11.25,-157.5,-266.25,-228.75,-210,-131.25,-144.58333333333334
509,-142.5,-131.25,-7.5,-157.5,-266.25,-225,-213.75,-138.75,-142.5
510,-142.5,-101.25,-15,-161.25,-266.25,-225,-221.25,-150,-142.5
511,-120,-90,-33.75,-168.75,-270,-232.5,-228.75,-153.75,-144.16666666666666
512,-101.25,-86.25,-52.5,-183.75,-288.75,-247.5,-243.75,-168.75,-152.5
513,-60,-90,-78.75,-210,-315,-273.75,-266.25,-187.5,-164.58333333333334
514,-37.5,-120,-105,-236.25,-345,-300,-277.5,-202.5,-180.41666666666666
515,-60,-161.25,-90,-217.5,-333.75,-288.75,-258.75,-195,-178.33333333333334
516,-93.75,-191.25,-52.5,-187.5,-322.5,-292.5,-273.75,-210,-180.41666666666666
517,-108.75,-206.25,-3.75,-146.25,-311.25,-300,-296.25,-228.75,-177.91666666666666
518,-82.5,-213.75,75,-63.75,-281.25,-300,-300,-232.5,-155.41666666666666
519,-45,-210,172.5,33.75,-243.75,-296.25,-311.25,-247.5,-127.5
520,-60,-225,273.75,120,-217.5,-300,-326.25,-262.5,-110.83333333333333
521,-116.25,-243.75,348.75,183.75,-206.25,-307.5,-337.5,-270,-105.41666666666667
522,-112.5,-213.75,405,262.5,-161.25,-288.75,-326.25,-258.75,-77.08333333333333
523,-63.75,-153.75,446.25,345,-108.75,-258.75,-307.5,-247.5,-38.75
524,-3.75,-75,483.75,420,-52.5,-217.5,-273.75,-213.75,7.5
525,135,18.75,517.5,491.25,18.75,-157.5,-213.75,-150,73.33333333333333
526,240,105,525,547.5,86.25,-97.5,-153.75,-97.5,128.33333333333334
527,255,183.75,540,618.75,161.25,-18.75,-82.5,-41.25,179.58333333333334
528,281.25,262.5,562.5,716.25,273.75,105,37.5,67.5,256.25
529,333.75,341.25,532.5,750,386.25,251.25,187.5,202.5,331.6666666666667
530,348.75,446.25,420,663.75,450,367.5,318.75,322.5,370.8333333333333
531,356.25,596.25,277.5,558.75,521.25,510,468.75,461.25,416.6666666666667
532,360,742.5,180,517.5,652.5,708.75,660,626.25,494.1666666666667
533,356.25,873.75,127.5,513.75,806.25,918.75,866.25,802.5,585.0
534,375,1080,11.25,401.25,896.25,1106.25,1068.75,993.75,659.1666666666666
535,401.25,1346.25,-221.25,112.5,877.5,1237.5,1256.25,1192.5,689.1666666666666
536,423.75,1563.75,-487.5,-240,825,1357.5,1436.25,1383.75,695.8333333333334
537,506.25,1653.75,-742.5,-573.75,776.25,1462.5,1582.5,1530,688.3333333333334
538,566.25,1668.75,-967.5,-817.5,768.75,1575,1713.75,1638.75,682.9166666666666
539,472.5,1650,-1083.75,-937.5,821.25,1702.5,1830,1713.75,685.4166666666666
540,348.75,1623.75,-1095,-963.75,900,1818.75,1912.5,1736.25,697.9166666666666
541,281.25,1552.5,-1128.75,-993.75,956.25,1890,1946.25,1721.25,691.6666666666666
542,232.5,1440,-1226.25,-1095,900,1830,1867.5,1635,620.4166666666666
543,142.5,1260,-1263.75,-1173.75,738.75,1612.5,1650,1440,489.5833333333333
544,-3.75,1046.25,-1181.25,-1170,536.25,1290,1323.75,1166.25,334.1666666666667
545,-135,851.25,-1117.5,-1207.5,243.75,892.5,956.25,870,150.41666666666666
546,-206.25,648.75,-1110,-1320,-138.75,438.75,562.5,573.75,-61.25
547,-255,457.5,-1076.25,-1398.75,-487.5,26.25,206.25,307.5,-246.66666666666666
548,-292.5,303.75,-997.5,-1380,-663.75,-213.75,-26.25,116.25,-350.4166666666667
549,-240,183.75,-918.75,-1275,-667.5,-296.25,-142.5,-7.5,-373.75
550,-157.5,90,-855,-1117.5,-592.5,-303.75,-195,-75,-356.25
551,-157.5,15,-768.75,-960,-510,-277.5,-206.25,-105,-330.0
552,-172.5,-37.5,-675,-832.5,-450,-232.5,-172.5,-86.25,-295.4166666666667
553,-131.25,-45,-596.25,-727.5,-408.75,-198.75,-135,-56.25,-255.41666666666666
554,-97.5,-41.25,-513.75,-611.25,-360,-172.5,-116.25,-45,-217.5
555,-127.5,-33.75,-423.75,-483.75,-288.75,-127.5,-97.5,-37.5,-180.0
556,-157.5,22.5,-341.25,-360,-210,-75,-56.25,-15,-132.5
557,-172.5,52.5,-277.5,-281.25,-165,-48.75,-41.25,0,-103.75
558,-153.75,56.25,-221.25,-225,-135,-33.75,-37.5,3.75,-82.91666666666667
559,-105,71.25,-172.5,-168.75,-105,-22.5,-33.75,7.5,-58.75
560,-52.5,97.5,-123.75,-123.75,-86.25,-22.5,-33.75,3.75,-37.916666666666664
561,15,86.25,-123.75,-123.75,-108.75,-52.5,-67.5,-26.25,-44.583333333333336
562,45,22.5,-123.75,-127.5,-131.25,-86.25,-93.75,-52.5,-60.833333333333336
563,33.75,-3.75,-75,-90,-116.25,-78.75,-86.25,-41.25,-50.833333333333336
564,18.75,3.75,-41.25,-67.5,-105,-71.25,-78.75,-37.5,-42.083333333333336
565,18.75,-15,-30,-56.25,-108.75,-75,-82.5,-37.5,-42.916666666666664
566,-11.25,-60,-22.5,-52.5,-112.5,-86.25,-90,-45,-53.333333333333336
567,-48.75,-56.25,-18.75,-56.25,-127.5,-105,-112.5,-71.25,-66.25
568,-86.25,-15,-15,-52.5,-131.25,-108.75,-120,-82.5,-67.91666666666667
569,-101.25,0,0,-37.5,-120,-97.5,-112.5,-75,-60.416666666666664
570,-86.25,-3.75,7.5,-26.25,-116.25,-97.5,-112.5,-71.25,-56.25
571,-75,-7.5,0,-30,-123.75,-108.75,-127.5,-82.5,-61.666666666666664
572,-86.25,-15,-3.75,-33.75,-131.25,-120,-142.5,-93.75,-69.58333333333333
573,-37.5,-30,-22.5,-52.5,-153.75,-150,-165,-112.5,-80.41666666666667
574,41.25,-33.75,-41.25,-67.5,-172.5,-168.75,-183.75,-123.75,-83.33333333333333
575,30,-22.5,-45,-71.25,-180,-176.25,-187.5,-131.25,-87.08333333333333
576,-26.25,-45,-30,-60,-176.25,-172.5,-183.75,-131.25,-91.66666666666667
577,-52.5,-86.25,-15,-48.75,-165,-165,-176.25,-127.5,-92.91666666666667
578,-56.25,-101.25,-3.75,-33.75,-157.5,-157.5,-165,-120,-88.33333333333333
579,-48.75,-93.75,15,-15,-138.75,-135,-146.25,-101.25,-73.75
580,-63.75,-60,33.75,3.75,-120,-116.25,-127.5,-82.5,-59.166666666666664
581,-86.25,-22.5,48.75,18.75,-105,-97.5,-105,-63.75,-45.833333333333336
582,-75,-3.75,48.75,30,-97.5,-86.25,-97.5,-56.25,-37.5
583,-45,-3.75,26.25,11.25,-116.25,-105,-116.25,-75,-47.083333333333336
584,-30,-22.5,26.25,3.75,-123.75,-112.5,-131.25,-86.25,-52.916666666666664
585,7.5,-41.25,15,-3.75,-135,-127.5,-142.5,-93.75,-57.916666666666664
586,52.5,-52.5,-15,-26.25,-161.25,-161.25,-168.75,-116.25,-72.08333333333333
587,37.5,-33.75,-18.75,-30,-168.75,-176.25,-180,-123.75,-77.08333333333333
588,22.5,0,-7.5,-22.5,-161.25,-165,-172.5,-120,-69.58333333333333
589,33.75,-3.75,3.75,-11.25,-150,-153.75,-165,-112.5,-62.083333333333336
590,30,-33.75,18.75,7.5,-131.25,-138.75,-150,-97.5,-55.0
591,-15,-60,33.75,26.25,-112.5,-116.25,-123.75,-75,-49.166666666666664
592,-75,-78.75,48.75,45,-93.75,-93.75,-101.25,-52.5,-44.583333333333336
593,-105,-82.5,63.75,56.25,-78.75,-75,-86.25,-41.25,-38.75
594,-101.25,-71.25,67.5,63.75,-71.25,-60,-78.75,-45,-32.916666666666664
595,-67.5,-56.25,52.5,56.25,-78.75,-71.25,-86.25,-56.25,-34.166666666666664
596,-41.25,-45,41.25,52.5,-82.5,-82.5,-101.25,-56.25,-35.0
597,15,-37.5,18.75,33.75,-105,-105,-120,-71.25,-41.25
598,63.75,-71.25,3.75,18.75,-120,-120,-127.5,-82.5,-48.333333333333336
599,33.75,-112.5,3.75,22.5,-116.25,-116.25,-123.75,-82.5,-54.583333333333336
600,-11.25,-105,11.25,26.25,-116.25,-112.5,-123.75,-90,-57.916666666666664
601,-18.75,-75,11.25,22.5,-120,-120,-131.25,-93.75,-58.333333333333336
602,22.5,-45,15,30,-116.25,-120,-127.5,-82.5,-47.083333333333336
603,22.5,-41.25,26.25,48.75,-93.75,-97.5,-108.75,-67.5,-34.583333333333336
604,-33.75,-37.5,37.5,63.75,-78.75,-82.5,-97.5,-60,-32.083333333333336
605,-71.25,-15,52.5,75,-63.75,-71.25,-93.75,-56.25,-27.083333333333332
606,-52.5,-3.75,56.25,86.25,-56.25,-60,-86.25,-48.75,-18.333333333333332
607,-37.5,-11.25,30,71.25,-67.5,-71.25,-93.75,-60,-26.666666666666668
608,-48.75,-37.5,11.25,52.5,-82.5,-86.25,-108.75,-71.25,-41.25
609,-7.5,-63.75,3.75,41.25,-101.25,-105,-123.75,-78.75,-48.333333333333336
610,75,-45,0,41.25,-105,-112.5,-123.75,-75,-38.333333333333336
611,78.75,-18.75,15,60,-90,-97.5,-105,-60,-24.166666666666668
612,52.5,-26.25,30,71.25,-75,-78.75,-86.25,-52.5,-18.333333333333332
613,52.5,-45,33.75,82.5,-63.75,-63.75,-75,-41.25,-13.333333333333334
614,67.5,-18.75,30,93.75,-56.25,-56.25,-71.25,-41.25,-5.833333333333333
615,60,22.5,30,90,-60,-60,-78.75,-52.5,-5.416666666666667
616,-7.5,37.5,37.5,90,-56.25,-60,-75,-48.75,-9.166666666666666
617,-48.75,67.5,52.5,108.75,-33.75,-33.75,-56.25,-30,2.9166666666666665
618,-30,63.75,48.75,116.25,-30,-30,-52.5,-26.25,6.666666666666667
619,-15,18.75,37.5,105,-37.5,-37.5,-60,-30,-2.0833333333333335
620,18.75,26.25,33.75,108.75,-30,-33.75,-56.25,-18.75,5.416666666666667
621,75,15,18.75,105,-37.5,-45,-71.25,-33.75,2.9166666666666665
622,123.75,-11.25,15,105,-41.25,-52.5,-78.75,-41.25,2.0833333333333335
623,142.5,18.75,30,120,-30,-45,-60,-22.5,17.083333333333332
624,105,7.5,26.25,116.25,-33.75,-45,-56.25,-22.5,10.833333333333334
625,63.75,-33.75,30,120,-26.25,-33.75,-45,-11.25,7.083333333333333
626,67.5,-45,37.5,131.25,-15,-22.5,-30,0,13.75
627,60,-45,52.5,150,-3.75,-11.25,-22.5,3.75,20.416666666666668
628,26.25,-15,60,161.25,11.25,0,-18.75,0,25.0
629,3.75,37.5,67.5,168.75,18.75,11.25,-7.5,7.5,34.166666666666664
630,11.25,63.75,63.75,172.5,26.25,18.75,0,22.5,42.083333333333336
631,15,45,52.5,172.5,30,26.25,0,22.5,40.416666666666664
632,41.25,41.25,41.25,172.5,26.25,22.5,0,15,40.0
633,120,52.5,22.5,153.75,7.5,3.75,-11.25,11.25,40.0
634,195,67.5,11.25,146.25,-3.75,-11.25,-18.75,15,44.583333333333336
635,168.75,56.25,15,153.75,0,-11.25,-18.75,15,42.083333333333336
636,112.5,26.25,22.5,153.75,0,-11.25,-18.75,11.25,32.916666666666664
637,101.25,33.75,18.75,150,-3.75,-7.5,-22.5,-3.75,29.583333333333332
638,97.5,37.5,18.75,153.75,-3.75,-3.75,-15,0,31.666666666666668
639,63.75,7.5,22.5,161.25,3.75,3.75,-7.5,7.5,29.166666666666668
640,7.5,-15,37.5,172.5,18.75,15,0,15,27.916666666666668
641,-26.25,-11.25,56.25,187.5,33.75,26.25,7.5,22.5,32.916666666666664
642,7.5,37.5,56.25,195,37.5,33.75,11.25,26.25,45.0
643,82.5,93.75,37.5,180,26.25,22.5,3.75,22.5,52.083333333333336
644,150,142.5,45,195,33.75,33.75,15,41.25,72.91666666666667
645,210,172.5,45,191.25,26.25,18.75,3.75,37.5,78.33333333333333
646,240,157.5,11.25,150,-11.25,-15,-22.5,11.25,57.916666666666664
647,202.5,101.25,3.75,150,-11.25,-11.25,-18.75,7.5,47.083333333333336
648,150,45,26.25,176.25,3.75,3.75,0,18.75,47.083333333333336
649,135,11.25,45,187.5,11.25,15,15,33.75,50.416666666666664
650,161.25,11.25,56.25,195,22.5,30,30,56.25,62.5
651,161.25,3.75,67.5,210,33.75,33.75,33.75,67.5,67.91666666666667
652,105,-15,78.75,213.75,41.25,45,41.25,71.25,64.58333333333333
653,52.5,-3.75,90,225,52.5,63.75,60,78.75,68.75
654,67.5,37.5,90,225,48.75,60,48.75,71.25,72.08333333333333
655,93.75,60,78.75,213.75,41.25,48.75,33.75,60,70.0
656,101.25,67.5,63.75,202.5,26.25,37.5,26.25,56.25,64.58333333333333
657,161.25,75,41.25,172.5,0,3.75,0,33.75,54.166666666666664
658,221.25,105,15,138.75,-37.5,-33.75,-37.5,3.75,41.666666666666664
659,191.25,108.75,7.5,127.5,-60,-56.25,-56.25,-15,27.5
660,146.25,75,22.5,138.75,-52.5,-48.75,-45,-7.5,25.416666666666668
661,142.5,71.25,30,146.25,-48.75,-41.25,-37.5,0,29.166666666666668
662,153.75,75,22.5,131.25,-56.25,-45,-41.25,0,26.666666666666668
663,123.75,30,37.5,142.5,-45,-33.75,-26.25,11.25,26.666666666666668
664,52.5,-3.75,63.75,161.25,-30,-18.75,-15,22.5,25.833333333333332
665,30,37.5,82.5,172.5,-18.75,-3.75,-7.5,30,35.833333333333336
666,41.25,86.25,82.5,168.75,-22.5,-3.75,-7.5,30,41.666666666666664
667,56.25,82.5,75,157.5,-33.75,-15,-15,26.25,37.083333333333336
668,93.75,78.75,67.5,146.25,-45,-26.25,-22.5,26.25,35.416666666666664
669,150,48.75,60,142.5,-52.5,-37.5,-33.75,18.75,32.916666666666664
670,191.25,-26.25,63.75,138.75,-60,-45,-33.75,18.75,27.5
671,191.25,-37.5,86.25,153.75,-45,-30,-15,37.5,37.916666666666664
672,165,7.5,93.75,150,-52.5,-37.5,-26.25,26.25,36.25
673,112.5,3.75,75,120,-86.25,-71.25,-60,-7.5,9.583333333333334
674,90,11.25,63.75,105,-101.25,-90,-82.5,-26.25,-3.3333333333333335
675,82.5,37.5,75,108.75,-93.75,-82.5,-78.75,-22.5,2.9166666666666665
676,48.75,41.25,97.5,123.75,-75,-67.5,-63.75,-11.25,10.416666666666666
677,15,56.25,108.75,127.5,-71.25,-56.25,-56.25,-11.25,12.5
678,-11.25,45,105,120,-75,-60,-60,-15,5.416666666666667
679,0,18.75,101.25,112.5,-82.5,-67.5,-67.5,-15,0.0
680,30,26.25,101.25,108.75,-82.5,-71.25,-67.5,-15,3.3333333333333335
681,82.5,11.25,86.25,93.75,-97.5,-86.25,-82.5,-30,-2.5
682,150,-15,75,75,-120,-112.5,-101.25,-41.25,-10.0
683,127.5,-37.5,78.75,63.75,-131.25,-123.75,-112.5,-52.5,-20.833333333333332
684,48.75,-78.75,78.75,56.25,-138.75,-131.25,-120,-63.75,-38.75
685,26.25,-97.5,78.75,52.5,-142.5,-131.25,-116.25,-67.5,-44.166666666666664
686,45,-63.75,82.5,52.5,-138.75,-127.5,-112.5,-63.75,-36.25
687,15,-48.75,78.75,41.25,-146.25,-131.25,-116.25,-67.5,-41.666666666666664
688,-41.25,-26.25,86.25,41.25,-138.75,-127.5,-116.25,-71.25,-43.75
689,-52.5,33.75,90,37.5,-135,-123.75,-123.75,-78.75,-39.166666666666664
690,-56.25,52.5,78.75,26.25,-146.25,-127.5,-127.5,-82.5,-42.5
691,-37.5,41.25,67.5,15,-157.5,-135,-131.25,-82.5,-46.666666666666664
692,-11.25,26.25,63.75,15,-153.75,-138.75,-135,-86.25,-46.666666666666664
693,26.25,3.75,48.75,-3.75,-168.75,-157.5,-157.5,-108.75,-57.5
694,37.5,-45,33.75,-30,-198.75,-191.25,-187.5,-127.5,-78.75
695,0,-97.5,41.25,-26.25,-198.75,-191.25,-183.75,-120,-86.25
696,-30,-101.25,52.5,-22.5,-191.25,-183.75,-172.5,-112.5,-84.58333333333333
697,-30,-90,48.75,-30,-195,-187.5,-172.5,-112.5,-85.41666666666667
698,-11.25,-101.25,52.5,-26.25,-191.25,-180,-168.75,-105,-81.25
699,-7.5,-116.25,67.5,-11.25,-172.5,-157.5,-146.25,-86.25,-70.0
700,-45,-120,71.25,-15,-168.75,-150,-135,-82.5,-71.66666666666667
701,-112.5,-123.75,63.75,-22.5,-176.25,-150,-142.5,-93.75,-84.16666666666667
702,-123.75,-127.5,67.5,-26.25,-172.5,-146.25,-146.25,-97.5,-85.83333333333333
703,-86.25,-116.25,60,-37.5,-183.75,-161.25,-157.5,-108.75,-87.91666666666667
704,-60,-90,45,-52.5,-198.75,-180,-172.5,-116.25,-91.66666666666667
705,-15,-67.5,33.75,-60,-210,-191.25,-183.75,-120,-90.41666666666667
706,11.25,-120,18.75,-75,-225,-206.25,-195,-127.5,-102.08333333333333
707,-37.5,-187.5,15,-86.25,-236.25,-217.5,-202.5,-142.5,-121.66666666666667
708,-67.5,-157.5,22.5,-82.5,-236.25,-213.75,-198.75,-142.5,-119.58333333333333
709,-45,-97.5,22.5,-82.5,-232.5,-210,-195,-142.5,-109.16666666666667
710,-26.25,-93.75,30,-78.75,-225,-202.5,-191.25,-138.75,-102.91666666666667
711,-30,-97.5,45,-67.5,-213.75,-191.25,-180,-123.75,-95.41666666666667
712,-90,-101.25,48.75,-67.5,-213.75,-191.25,-180,-123.75,-102.08333333333333
713,-165,-116.25,52.5,-67.5,-206.25,-183.75,-176.25,-116.25,-108.75
714,-157.5,-105,45,-71.25,-210,-183.75,-176.25,-116.25,-108.33333333333333
715,-101.25,-82.5,37.5,-78.75,-217.5,-191.25,-180,-112.5,-102.91666666666667
716,-78.75,-82.5,33.75,-86.25,-221.25,-191.25,-172.5,-105,-100.41666666666667
717,-48.75,-75,7.5,-108.75,-243.75,-210,-187.5,-120,-109.58333333333333
718,22.5,-60,-3.75,-116.25,-255,-217.5,-198.75,-138.75,-107.5
719,18.75,-75,7.5,-108.75,-243.75,-217.5,-198.75,-146.25,-107.08333333333333
720,-22.5,-71.25,15,-101.25,-236.25,-213.75,-202.5,-146.25,-108.75
721,-37.5,-60,11.25,-105,-240,-221.25,-210,-153.75,-112.91666666666667
722,-56.25,-90,3.75,-116.25,-247.5,-225,-213.75,-157.5,-122.5
723,-82.5,-123.75,3.75,-112.5,-247.5,-217.5,-202.5,-150,-125.83333333333333
724,-116.25,-123.75,30,-86.25,-217.5,-187.5,-168.75,-120,-110.0
725,-127.5,-97.5,60,-56.25,-183.75,-153.75,-138.75,-86.25,-87.08333333333333
726,-120,-82.5,60,-56.25,-180,-150,-138.75,-86.25,-83.75
727,-108.75,-105,41.25,-67.5,-195,-168.75,-161.25,-108.75,-97.08333333333333
728,-97.5,-116.25,30,-75,-202.5,-180,-172.5,-116.25,-103.33333333333333
729,-67.5,-116.25,7.5,-101.25,-225,-202.5,-191.25,-135,-114.58333333333333
730,-18.75,-120,-18.75,-131.25,-255,-232.5,-217.5,-157.5,-127.91666666666667
731,-22.5,-120,-15,-123.75,-251.25,-232.5,-213.75,-153.75,-125.83333333333333
732,-41.25,-120,7.5,-101.25,-228.75,-206.25,-187.5,-131.25,-112.08333333333333
733,-41.25,-142.5,15,-93.75,-221.25,-198.75,-180,-123.75,-109.58333333333333
734,-37.5,-142.5,7.5,-105,-228.75,-206.25,-187.5,-131.25,-114.58333333333333
735,-48.75,-116.25,18.75,-90,-221.25,-195,-176.25,-120,-105.41666666666667
736,-97.5,-112.5,37.5,-67.5,-198.75,-176.25,-161.25,-105,-97.91666666666667
737,-142.5,-116.25,45,-63.75,-191.25,-168.75,-153.75,-105,-99.58333333333333
738,-153.75,-116.25,37.5,-67.5,-191.25,-168.75,-161.25,-108.75,-103.33333333333333
739,-127.5,-116.25,22.5,-75,-195,-176.25,-161.25,-108.75,-104.16666666666667
740,-82.5,-97.5,22.5,-67.5,-191.25,-172.5,-161.25,-105,-95.0
741,-22.5,-78.75,26.25,-71.25,-195,-172.5,-165,-108.75,-87.5
742,-3.75,-131.25,-3.75,-105,-228.75,-213.75,-198.75,-138.75,-113.75
743,-33.75,-165,-11.25,-112.5,-243.75,-228.75,-210,-146.25,-127.91666666666667
744,-26.25,-112.5,7.5,-90,-221.25,-206.25,-183.75,-127.5,-106.66666666666667
745,0,-56.25,18.75,-78.75,-206.25,-187.5,-165,-112.5,-87.5
746,-7.5,-60,15,-82.5,-210,-187.5,-165,-112.5,-90.0
747,-45,-90,15,-82.5,-206.25,-187.5,-165,-116.25,-97.5
748,-86.25,-90,26.25,-71.25,-195,-176.25,-153.75,-112.5,-95.41666666666667
749,-127.5,-71.25,37.5,-60,-183.75,-161.25,-146.25,-108.75,-91.25
750,-135,-56.25,41.25,-60,-180,-153.75,-142.5,-105,-87.91666666666667
751,-116.25,-60,26.25,-67.5,-187.5,-157.5,-138.75,-93.75,-88.33333333333333
752,-101.25,-56.25,3.75,-86.25,-206.25,-172.5,-157.5,-112.5,-98.75
753,-56.25,-33.75,-22.5,-108.75,-225,-202.5,-187.5,-138.75,-108.33333333333333
754,3.75,-52.5,-26.25,-116.25,-232.5,-221.25,-206.25,-150,-111.25
755,3.75,-93.75,-15,-108.75,-228.75,-217.5,-206.25,-150,-112.91666666666667
756,-22.5,-93.75,0,-93.75,-217.5,-198.75,-183.75,-131.25,-104.58333333333333
757,-18.75,-75,7.5,-90,-213.75,-191.25,-172.5,-116.25,-96.66666666666667
758,-22.5,-90,-3.75,-93.75,-217.5,-198.75,-176.25,-120,-102.5
759,-52.5,-108.75,3.75,-86.25,-210,-191.25,-168.75,-120,-103.75
760,-82.5,-75,22.5,-75,-195,-168.75,-153.75,-108.75,-92.91666666666667
761,-108.75,-67.5,26.25,-63.75,-180,-153.75,-142.5,-97.5,-87.5
762,-142.5,-93.75,30,-60,-172.5,-146.25,-135,-90,-90.0
763,-165,-101.25,30,-60,-172.5,-150,-135,-90,-93.75
764,-135,-56.25,18.75,-71.25,-187.5,-161.25,-150,-105,-94.16666666666667
765,-41.25,-18.75,0,-90,-206.25,-183.75,-168.75,-116.25,-91.66666666666667
766,52.5,-63.75,0,-90,-206.25,-187.5,-165,-105,-85.0
767,30,-146.25,11.25,-75,-195,-176.25,-150,-93.75,-88.33333333333333
768,-41.25,-183.75,11.25,-82.5,-198.75,-180,-157.5,-105,-104.16666666666667
769,-75,-198.75,3.75,-93.75,-210,-191.25,-172.5,-120,-117.5
770,-45,-168.75,0,-97.5,-217.5,-195,-180,-127.5,-114.58333333333333
771,3.75,-67.5,22.5,-78.75,-195,-176.25,-157.5,-105,-83.75
772,-18.75,-15,37.5,-63.75,-180,-153.75,-138.75,-90,-69.16666666666667
773,-112.5,-60,41.25,-60,-172.5,-142.5,-127.5,-82.5,-79.58333333333333
774,-142.5,-93.75,45,-56.25,-165,-131.25,-120,-75,-82.08333333333333
775,-86.25,-67.5,37.5,-60,-168.75,-135,-123.75,-75,-75.41666666666667
776,-33.75,-18.75,18.75,-71.25,-176.25,-146.25,-131.25,-78.75,-70.83333333333333
777,26.25,-26.25,-7.5,-93.75,-198.75,-165,-150,-93.75,-78.75
778,56.25,-86.25,-26.25,-112.5,-221.25,-191.25,-172.5,-112.5,-96.25
779,7.5,-112.5,-22.5,-116.25,-225,-195,-176.25,-116.25,-106.25
780,-37.5,-82.5,-11.25,-108.75,-221.25,-191.25,-172.5,-120,-105.0
781,-48.75,-60,-18.75,-116.25,-228.75,-198.75,-180,-127.5,-108.75
782,-45,-52.5,-26.25,-123.75,-240,-206.25,-183.75,-131.25,-112.08333333333333
783,-33.75,-41.25,-15,-112.5,-225,-187.5,-165,-116.25,-99.58333333333333
784,-67.5,-45,3.75,-93.75,-198.75,-165,-146.25,-101.25,-90.41666666666667
785,-142.5,-78.75,11.25,-90,-198.75,-168.75,-153.75,-105,-102.91666666666667
786,-172.5,-123.75,7.5,-93.75,-206.25,-172.5,-157.5,-108.75,-114.16666666666667
787,-142.5,-135,22.5,-78.75,-191.25,-157.5,-142.5,-93.75,-102.08333333333333
788,-90,-86.25,37.5,-63.75,-172.5,-142.5,-131.25,-78.75,-80.83333333333333
789,-33.75,-82.5,18.75,-75,-187.5,-165,-153.75,-101.25,-86.66666666666667
790,22.5,-123.75,-22.5,-108.75,-221.25,-198.75,-183.75,-123.75,-106.66666666666667
791,33.75,-131.25,-18.75,-112.5,-225,-198.75,-176.25,-116.25,-105.0
792,-11.25,-131.25,0,-101.25,-213.75,-183.75,-161.25,-105,-100.83333333333333
793,-41.25,-131.25,0,-101.25,-217.5,-187.5,-165,-112.5,-106.25
794,-41.25,-131.25,-7.5,-116.25,-232.5,-202.5,-180,-127.5,-115.41666666666667
795,-63.75,-138.75,-3.75,-112.5,-228.75,-195,-176.25,-123.75,-115.83333333333333
796,-112.5,-123.75,7.5,-101.25,-213.75,-180,-165,-116.25,-111.66666666666667
797,-153.75,-90,11.25,-97.5,-210,-172.5,-157.5,-108.75,-108.75
798,-153.75,-60,7.5,-101.25,-206.25,-165,-150,-105,-103.75
799,-123.75,-48.75,-3.75,-112.5,-213.75,-176.25,-168.75,-120,-107.5
800,-93.75,-52.5,-15,-120,-228.75,-198.75,-195,-142.5,-116.25
801,-48.75,-75,-26.25,-135,-243.75,-213.75,-198.75,-142.5,-120.41666666666667
802,7.5,-90,-41.25,-150,-258.75,-228.75,-206.25,-142.5,-123.33333333333333
803,15,-71.25,-52.5,-161.25,-273.75,-243.75,-225,-157.5,-130.0
804,-33.75,-97.5,-48.75,-157.5,-273.75,-236.25,-213.75,-153.75,-135.0
805,-60,-123.75,-41.25,-153.75,-266.25,-228.75,-206.25,-150,-136.66666666666666
806,-22.5,-71.25,-41.25,-150,-258.75,-221.25,-202.5,-146.25,-123.75
807,-7.5,-41.25,-33.75,-142.5,-247.5,-210,-187.5,-135,-111.66666666666667
808,-60,-75,-22.5,-131.25,-236.25,-198.75,-176.25,-127.5,-114.16666666666667
809,-112.5,-78.75,-3.75,-116.25,-221.25,-176.25,-161.25,-112.5,-109.16666666666667
810,-131.25,-90,7.5,-105,-206.25,-165,-153.75,-105,-105.41666666666667
811,-150,-146.25,11.25,-97.5,-198.75,-161.25,-150,-101.25,-110.41666666666667
812,-146.25,-165,-7.5,-112.5,-213.75,-172.5,-161.25,-108.75,-120.83333333333333
813,-78.75,-168.75,-33.75,-135,-240,-198.75,-180,-123.75,-128.75
814,-7.5,-195,-48.75,-146.25,-251.25,-213.75,-191.25,-127.5,-131.25
815,3.75,-191.25,-41.25,-138.75,-247.5,-210,-191.25,-127.5,-127.08333333333333
816,-22.5,-168.75,-26.25,-131.25,-240,-206.25,-187.5,-127.5,-123.33333333333333
817,-26.25,-142.5,-11.25,-116.25,-228.75,-198.75,-180,-116.25,-113.33333333333333
818,-7.5,-108.75,0,-105,-213.75,-183.75,-161.25,-93.75,-97.08333333333333
819,-18.75,-101.25,-3.75,-108.75,-217.5,-180,-157.5,-93.75,-97.91666666666667
820,-82.5,-108.75,0,-105,-210,-172.5,-153.75,-101.25,-103.75
821,-127.5,-105,11.25,-97.5,-198.75,-153.75,-142.5,-97.5,-101.25
822,-142.5,-116.25,11.25,-101.25,-198.75,-157.5,-146.25,-97.5,-105.41666666666667
823,-135,-146.25,-3.75,-112.5,-213.75,-172.5,-161.25,-105,-116.66666666666667
824,-146.25,-176.25,-26.25,-131.25,-232.5,-195,-180,-120,-134.16666666666666
825,-67.5,-142.5,-41.25,-150,-255,-213.75,-195,-135,-133.33333333333334
826,78.75,-71.25,-33.75,-142.5,-247.5,-210,-187.5,-123.75,-104.16666666666667
827,75,-82.5,-33.75,-142.5,-247.5,-210,-187.5,-127.5,-106.25
828,-22.5,-131.25,-33.75,-146.25,-251.25,-206.25,-183.75,-127.5,-122.5
829,-56.25,-138.75,-33.75,-142.5,-247.5,-202.5,-183.75,-131.25,-126.25
830,-63.75,-138.75,-41.25,-150,-255,-213.75,-198.75,-150,-134.58333333333334
831,-71.25,-127.5,-37.5,-146.25,-251.25,-210,-195,-146.25,-131.66666666666666
832,-82.5,-75,-18.75,-131.25,-232.5,-191.25,-176.25,-123.75,-114.58333333333333
833,-108.75,-52.5,-7.5,-123.75,-228.75,-183.75,-172.5,-120,-110.83333333333333
834,-108.75,-41.25,-3.75,-116.25,-221.25,-180,-168.75,-120,-106.66666666666667
835,-93.75,-15,-3.75,-112.5,-213.75,-176.25,-168.75,-112.5,-99.58333333333333
836,-90,-11.25,0,-112.5,-217.5,-180,-176.25,-116.25,-100.41666666666667
837,-56.25,-26.25,-18.75,-135,-240,-206.25,-198.75,-138.75,-113.33333333333333
838,-22.5,-75,-33.75,-153.75,-262.5,-228.75,-213.75,-150,-126.66666666666667
839,-48.75,-127.5,-30,-150,-258.75,-221.25,-202.5,-135,-130.41666666666666
840,-63.75,-123.75,-7.5,-127.5,-232.5,-198.75,-183.75,-120,-117.5
841,-3.75,-67.5,7.5,-116.25,-225,-187.5,-176.25,-123.75,-99.16666666666667
842,15,-48.75,26.25,-105,-217.5,-180,-168.75,-116.25,-88.33333333333333
843,-22.5,-60,52.5,-86.25,-198.75,-165,-150,-97.5,-80.83333333333333
844,-60,-22.5,52.5,-82.5,-195,-161.25,-150,-101.25,-80.0
845,-112.5,22.5,52.5,-78.75,-195,-157.5,-150,-101.25,-80.0
846,-131.25,26.25,48.75,-86.25,-195,-157.5,-153.75,-105,-83.75
847,-108.75,0,45,-86.25,-195,-157.5,-153.75,-105,-84.58333333333333
848,-93.75,-26.25,52.5,-75,-183.75,-150,-146.25,-101.25,-80.41666666666667
849,-45,-48.75,60,-60,-168.75,-135,-131.25,-82.5,-67.91666666666667
850,26.25,-71.25,56.25,-63.75,-172.5,-138.75,-131.25,-78.75,-63.75
851,15,-93.75,56.25,-67.5,-176.25,-138.75,-127.5,-71.25,-67.08333333333333
852,-22.5,-105,71.25,-56.25,-165,-123.75,-105,-56.25,-62.5
853,-22.5,-93.75,71.25,-52.5,-161.25,-116.25,-97.5,-48.75,-57.916666666666664
854,-11.25,-67.5,56.25,-60,-165,-120,-101.25,-56.25,-58.333333333333336
855,-15,-45,45,-60,-161.25,-120,-105,-60,-57.916666666666664
856,-45,-15,33.75,-60,-161.25,-123.75,-116.25,-63.75,-61.25
857,-67.5,37.5,18.75,-60,-157.5,-120,-112.5,-60,-57.916666666666664
858,-78.75,56.25,3.75,-63.75,-153.75,-112.5,-108.75,-60,-57.5
859,-60,41.25,-7.5,-71.25,-157.5,-112.5,-108.75,-63.75,-60.0
860,-26.25,45,-11.25,-71.25,-153.75,-105,-101.25,-52.5,-52.916666666666664
861,11.25,30,-33.75,-93.75,-176.25,-127.5,-116.25,-63.75,-63.333333333333336
862,75,-33.75,-63.75,-127.5,-210,-165,-150,-97.5,-85.83333333333333
863,67.5,-93.75,-71.25,-135,-221.25,-176.25,-161.25,-105,-99.58333333333333
864,18.75,-101.25,-60,-123.75,-210,-161.25,-142.5,-90,-96.66666666666667
865,3.75,-90,-60,-127.5,-213.75,-161.25,-138.75,-86.25,-97.08333333333333
866,-7.5,-97.5,-71.25,-142.5,-228.75,-176.25,-153.75,-97.5,-108.33333333333333
867,-33.75,-116.25,-71.25,-146.25,-236.25,-183.75,-161.25,-105,-117.08333333333333
868,-63.75,-97.5,-45,-123.75,-213.75,-157.5,-142.5,-90,-103.75
869,-93.75,-60,-22.5,-101.25,-187.5,-138.75,-131.25,-86.25,-91.25
870,-108.75,-63.75,-22.5,-105,-191.25,-146.25,-146.25,-97.5,-97.91666666666667
871,-101.25,-86.25,-33.75,-116.25,-206.25,-161.25,-161.25,-108.75,-108.33333333333333
872,-78.75,-63.75,-33.75,-120,-206.25,-157.5,-157.5,-105,-102.5
873,-18.75,-33.75,-45,-131.25,-217.5,-165,-165,-108.75,-98.33333333333333
874,56.25,-41.25,-56.25,-146.25,-236.25,-191.25,-187.5,-127.5,-103.33333333333333
875,56.25,-60,-60,-150,-243.75,-202.5,-195,-138.75,-110.41666666666667
876,0,-82.5,-52.5,-142.5,-236.25,-191.25,-183.75,-131.25,-113.33333333333333
877,-37.5,-120,-56.25,-150,-243.75,-191.25,-187.5,-138.75,-125.0
878,-52.5,-142.5,-56.25,-157.5,-247.5,-195,-187.5,-142.5,-131.25
879,-41.25,-127.5,-52.5,-153.75,-243.75,-191.25,-180,-131.25,-124.58333333333333
880,-63.75,-101.25,-37.5,-138.75,-225,-176.25,-168.75,-120,-114.58333333333333
881,-120,-97.5,-26.25,-127.5,-213.75,-161.25,-161.25,-120,-114.16666666666667
882,-123.75,-93.75,-30,-131.25,-217.5,-168.75,-168.75,-123.75,-117.5
883,-90,-90,-52.5,-153.75,-243.75,-195,-191.25,-142.5,-128.75
884,-86.25,-86.25,-67.5,-168.75,-258.75,-210,-206.25,-150,-137.08333333333334
885,-63.75,-78.75,-82.5,-183.75,-273.75,-221.25,-217.5,-161.25,-142.5
886,-18.75,-86.25,-93.75,-191.25,-288.75,-240,-228.75,-172.5,-146.66666666666666
887,-3.75,-112.5,-82.5,-187.5,-281.25,-232.5,-221.25,-165,-142.91666666666666
888,-41.25,-153.75,-60,-168.75,-258.75,-213.75,-206.25,-157.5,-140.0
889,-56.25,-168.75,-48.75,-157.5,-251.25,-206.25,-202.5,-157.5,-138.75
890,-45,-165,-45,-153.75,-243.75,-195,-191.25,-146.25,-131.66666666666666
891,-60,-180,-41.25,-146.25,-240,-187.5,-180,-131.25,-129.58333333333334
892,-101.25,-165,-37.5,-142.5,-232.5,-180,-172.5,-123.75,-128.33333333333334
893,-146.25,-142.5,-37.5,-146.25,-232.5,-180,-176.25,-131.25,-132.5
894,-183.75,-146.25,-48.75,-150,-236.25,-183.75,-187.5,-146.25,-142.5
895,-180,-157.5,-63.75,-165,-247.5,-198.75,-202.5,-161.25,-152.91666666666666
896,-123.75,-127.5,-63.75,-161.25,-243.75,-191.25,-195,-146.25,-139.16666666666666
897,-26.25,-75,-60,-157.5,-240,-183.75,-183.75,-135,-117.91666666666667
898,63.75,-60,-63.75,-157.5,-240,-183.75,-180,-135,-106.25
899,52.5,-101.25,-67.5,-161.25,-243.75,-191.25,-187.5,-142.5,-115.83333333333333
900,-18.75,-168.75,-60,-153.75,-240,-191.25,-191.25,-142.5,-129.58333333333334
901,-52.5,-210,-48.75,-142.5,-228.75,-180,-176.25,-131.25,-130.0
902,-56.25,-206.25,-45,-142.5,-228.75,-180,-176.25,-131.25,-129.58333333333334
903,-63.75,-183.75,-52.5,-153.75,-240,-191.25,-187.5,-142.5,-135.0
904,-90,-161.25,-33.75,-135,-221.25,-176.25,-172.5,-123.75,-123.75
905,-112.5,-146.25,-11.25,-108.75,-202.5,-157.5,-153.75,-112.5,-111.66666666666667
906,-105,-146.25,3.75,-90,-198.75,-157.5,-165,-127.5,-109.58333333333333
907,-67.5,-153.75,26.25,-67.5,-202.5,-183.75,-198.75,-165,-112.5
908,-52.5,-157.5,78.75,-18.75,-198.75,-206.25,-228.75,-198.75,-109.16666666666667
909,-41.25,-206.25,135,33.75,-210,-247.5,-281.25,-247.5,-118.33333333333333
910,18.75,-273.75,187.5,78.75,-221.25,-296.25,-330,-292.5,-125.41666666666667
911,41.25,-281.25,251.25,142.5,-206.25,-303.75,-341.25,-300,-110.83333333333333
912,26.25,-217.5,322.5,236.25,-150,-270,-315,-273.75,-71.25
913,45,-138.75,386.25,341.25,-67.5,-210,-258.75,-228.75,-14.583333333333334
914,75,-112.5,435,431.25,11.25,-150,-202.5,-176.25,34.583333333333336
915,116.25,-82.5,465,510,90,-75,-138.75,-116.25,85.41666666666667
916,127.5,7.5,487.5,588.75,180,18.75,-52.5,-45,145.83333333333334
917,131.25,123.75,521.25,675,281.25,127.5,48.75,41.25,216.66666666666666
918,195,262.5,540,776.25,401.25,251.25,161.25,142.5,303.3333333333333
919,262.5,386.25,491.25,806.25,498.75,367.5,270,240,369.1666666666667
920,292.5,483.75,412.5,761.25,562.5,476.25,386.25,341.25,412.9166666666667
921,352.5,603.75,300,663.75,611.25,592.5,510,461.25,455.0
922,457.5,731.25,176.25,577.5,678.75,720,652.5,592.5,509.5833333333333
923,491.25,866.25,131.25,573.75,802.5,900,840,753.75,595.4166666666666
924,487.5,1072.5,63.75,525,911.25,1095,1053.75,948.75,684.1666666666666
925,513.75,1335,-123.75,333.75,945,1263.75,1271.25,1166.25,745.0
926,543.75,1526.25,-356.25,60,933.75,1406.25,1466.25,1365,771.6666666666666
927,532.5,1560,-562.5,-210,930,1541.25,1631.25,1515,770.8333333333334
928,468.75,1552.5,-727.5,-416.25,963.75,1706.25,1803.75,1653.75,778.3333333333334
929,382.5,1571.25,-817.5,-517.5,1038.75,1867.5,1946.25,1740,801.25
930,311.25,1545,-828.75,-540,1128.75,1980,2017.5,1751.25,818.3333333333334
931,285,1488.75,-870,-600,1166.25,2032.5,2036.25,1728.75,807.5
932,232.5,1406.25,-975,-742.5,1098.75,1972.5,1965,1650,734.1666666666666
933,180,1237.5,-1038.75,-881.25,911.25,1743.75,1736.25,1447.5,592.9166666666666
934,135,990,-1016.25,-956.25,652.5,1376.25,1372.5,1143.75,410.8333333333333
935,56.25,742.5,-982.5,-1038.75,337.5,956.25,993.75,855,213.33333333333334
936,-45,502.5,-960,-1132.5,-7.5,532.5,630,592.5,12.5
937,-138.75,262.5,-903.75,-1192.5,-311.25,161.25,303.75,348.75,-163.33333333333334
938,-161.25,142.5,-828.75,-1185,-476.25,-67.5,78.75,165,-259.1666666666667
939,-146.25,120,-746.25,-1087.5,-480,-135,-22.5,56.25,-271.25
940,-202.5,30,-682.5,-960,-416.25,-135,-67.5,-11.25,-271.6666666666667
941,-258.75,-41.25,-645,-836.25,-341.25,-97.5,-67.5,-33.75,-257.9166666666667
942,-240,-30,-596.25,-716.25,-273.75,-48.75,-33.75,-15,-217.08333333333334
943,-191.25,-3.75,-547.5,-637.5,-258.75,-41.25,-26.25,-7.5,-190.41666666666666
944,-153.75,7.5,-495,-562.5,-258.75,-52.5,-33.75,-15,-173.75
945,-101.25,0,-438.75,-476.25,-236.25,-52.5,-37.5,-22.5,-151.66666666666666
946,-33.75,-11.25,-382.5,-386.25,-195,-41.25,-30,-15,-121.66666666666667
947,-7.5,11.25,-333.75,-303.75,-153.75,-22.5,-18.75,-11.25,-93.33333333333333
948,-15,52.5,-281.25,-240,-120,-7.5,-11.25,-7.5,-70.0
949,-3.75,56.25,-225,-187.5,-93.75,3.75,-11.25,-15,-52.916666666666664
950,15,15,-172.5,-135,-71.25,11.25,-7.5,-15,-40.0
951,11.25,-15,-116.25,-82.5,-37.5,33.75,15,7.5,-20.416666666666668
952,-33.75,-15,-75,-52.5,-18.75,48.75,26.25,18.75,-11.25
953,-101.25,-26.25,-56.25,-37.5,-18.75,45,15,7.5,-19.166666666666668
954,-138.75,-30,-56.25,-37.5,-33.75,26.25,-3.75,-15,-32.083333333333336
955,-105,-15,-56.25,-37.5,-45,7.5,-22.5,-30,-33.75
956,-41.25,0,-41.25,-26.25,-45,3.75,-26.25,-26.25,-22.5
957,18.75,-7.5,-30,-18.75,-48.75,-7.5,-37.5,-37.5,-18.75
958,75,-37.5,-41.25,-33.75,-75,-45,-75,-63.75,-32.916666666666664
959,75,-45,-41.25,-37.5,-86.25,-63.75,-93.75,-78.75,-41.25
960,45,-15,-26.25,-22.5,-82.5,-60,-90,-78.75,-36.666666666666664
961,22.5,-7.5,-30,-30,-93.75,-71.25,-97.5,-90,-44.166666666666664
962,11.25,-18.75,-30,-26.25,-93.75,-67.5,-93.75,-78.75,-44.166666666666664
963,-3.75,-60,-26.25,-15,-86.25,-60,-86.25,-71.25,-45.416666666666664
964,-45,-86.25,-7.5,0,-67.5,-41.25,-71.25,-60,-42.083333333333336
965,-82.5,-71.25,7.5,18.75,-52.5,-18.75,-48.75,-45,-32.5
966,-97.5,-45,11.25,18.75,-48.75,-15,-52.5,-52.5,-31.25
967,-97.5,-37.5,11.25,18.75,-52.5,-22.5,-63.75,-67.5,-34.583333333333336
968,-63.75,-33.75,7.5,15,-56.25,-30,-78.75,-78.75,-35.416666666666664
969,-7.5,-33.75,0,7.5,-67.5,-41.25,-86.25,-82.5,-34.583333333333336
970,60,-56.25,-18.75,-7.5,-90,-63.75,-97.5,-90,-40.416666666666664
971,48.75,-112.5,-22.5,-18.75,-105,-78.75,-105,-97.5,-54.583333333333336
972,26.25,-108.75,-3.75,-3.75,-90,-60,-90,-86.25,-46.25
973,41.25,-52.5,-3.75,3.75,-78.75,-52.5,-86.25,-86.25,-35.0
974,60,-15,-11.25,7.5,-82.5,-56.25,-93.75,-90,-31.25
975,60,0,-3.75,22.5,-71.25,-48.75,-82.5,-78.75,-22.5
976,11.25,11.25,11.25,33.75,-60,-33.75,-67.5,-60,-17.083333333333332
977,-45,15,22.5,45,-45,-22.5,-56.25,-56.25,-15.833333333333334
978,-41.25,22.5,22.5,52.5,-37.5,-15,-56.25,-56.25,-12.083333333333334
979,-30,7.5,11.25,48.75,-45,-18.75,-60,-60,-16.25
980,-33.75,-30,3.75,41.25,-48.75,-22.5,-63.75,-63.75,-24.166666666666668
981,-15,-63.75,-11.25,26.25,-60,-33.75,-75,-67.5,-33.333333333333336
982,56.25,-63.75,-30,15,-75,-52.5,-90,-78.75,-35.416666666666664
983,82.5,-52.5,-26.25,22.5,-71.25,-52.5,-86.25,-75,-28.75
984,56.25,-41.25,-18.75,30,-63.75,-41.25,-75,-71.25,-25.0
985,63.75,-3.75,-22.5,26.25,-67.5,-37.5,-75,-75,-21.25
986,86.25,7.5,-11.25,41.25,-52.5,-26.25,-67.5,-67.5,-10.0
987,56.25,-41.25,7.5,63.75,-30,-7.5,-45,-45,-4.583333333333333
988,15,-60,22.5,78.75,-11.25,15,-22.5,-26.25,1.25
989,-26.25,-33.75,33.75,90,0,30,-11.25,-15,7.5
990,-45,-15,22.5,82.5,-7.5,22.5,-18.75,-26.25,1.6666666666666667
991,-37.5,-18.75,11.25,75,-11.25,15,-26.25,-33.75,-2.9166666666666665
992,-11.25,-22.5,11.25,82.5,-3.75,22.5,-18.75,-22.5,4.166666666666667
993,56.25,-22.5,11.25,86.25,0,26.25,-11.25,-7.5,15.416666666666666
994,142.5,-26.25,-7.5,71.25,-15,11.25,-22.5,-15,15.416666666666666
995,142.5,-33.75,-18.75,60,-26.25,-3.75,-41.25,-37.5,4.583333333333333
996,75,-45,-7.5,71.25,-18.75,3.75,-37.5,-37.5,0.4166666666666667
997,37.5,-60,-3.75,71.25,-18.75,3.75,-37.5,-41.25,-5.416666666666667
998,22.5,-75,-7.5,67.5,-26.25,-7.5,-45,-48.75,-13.333333333333334
999,30,-60,-3.75,71.25,-22.5,0,-41.25,-45,-7.916666666666667
1000,52.5,18.75,22.5,105,7.5,30,-15,-18.75,22.5
1001,30,75,41.25,123.75,30,56.25,7.5,-3.75,40.0
1002,-26.25,48.75,26.25,116.25,22.5,48.75,3.75,-7.5,25.833333333333332
1003,-41.25,45,-11.25,86.25,0,22.5,-26.25,-37.5,4.166666666666667
1004,-3.75,82.5,-18.75,86.25,3.75,26.25,-30,-41.25,11.666666666666666
1005,90,112.5,-3.75,105,18.75,33.75,-18.75,-30,34.166666666666664
1006,176.25,86.25,-3.75,108.75,18.75,33.75,-15,-18.75,42.916666666666664
1007,165,0,-3.75,116.25,26.25,37.5,-3.75,-7.5,36.666666666666664
1008,116.25,-48.75,7.5,123.75,33.75,48.75,11.25,7.5,33.333333333333336
1009,101.25,-41.25,11.25,127.5,37.5,63.75,22.5,18.75,37.916666666666664
1010,101.25,-7.5,3.75,127.5,37.5,67.5,26.25,18.75,41.666666666666664
1011,86.25,3.75,0,127.5,41.25,71.25,30,18.75,42.083333333333336
1012,41.25,7.5,11.25,142.5,52.5,78.75,37.5,22.5,43.75
1013,18.75,45,18.75,153.75,63.75,86.25,41.25,30,50.833333333333336
1014,26.25,63.75,22.5,165,78.75,101.25,56.25,45,62.083333333333336
1015,41.25,52.5,30,176.25,90,112.5,63.75,52.5,68.75
1016,60,41.25,37.5,187.5,101.25,120,71.25,56.25,75.0
1017,108.75,18.75,18.75,176.25,86.25,105,56.25,41.25,67.91666666666667
1018,168.75,-15,-11.25,150,56.25,75,26.25,15,51.666666666666664
1019,161.25,-18.75,-18.75,142.5,41.25,60,15,3.75,42.916666666666664
1020,116.25,-7.5,-11.25,150,48.75,63.75,18.75,7.5,42.916666666666664
1021,120,18.75,0,157.5,60,75,30,18.75,53.333333333333336
1022,142.5,37.5,3.75,168.75,67.5,82.5,41.25,30,63.75
1023,120,11.25,7.5,172.5,71.25,93.75,48.75,37.5,62.5
1024,97.5,26.25,15,183.75,86.25,112.5,63.75,52.5,70.83333333333333
1025,86.25,78.75,30,202.5,108.75,135,86.25,67.5,88.33333333333333
1026,67.5,90,26.25,202.5,112.5,138.75,90,63.75,87.91666666666667
1027,90,93.75,7.5,195,105,131.25,82.5,60,85.0
1028,112.5,97.5,7.5,198.75,105,131.25,82.5,60,88.33333333333333
1029,153.75,116.25,0,191.25,97.5,120,75,56.25,90.0
1030,225,127.5,-30,161.25,63.75,86.25,45,30,78.75
1031,251.25,123.75,-41.25,153.75,48.75,75,33.75,22.5,74.16666666666667
1032,198.75,120,-37.5,153.75,48.75,78.75,41.25,22.5,69.58333333333333
1033,153.75,112.5,-37.5,150,48.75,75,41.25,26.25,63.333333333333336
1034,176.25,138.75,-41.25,150,45,71.25,37.5,22.5,66.66666666666667
1035,202.5,153.75,-33.75,161.25,52.5,82.5,48.75,30,77.5
1036,161.25,90,-15,176.25,67.5,93.75,60,45,75.41666666666667
1037,105,71.25,7.5,191.25,82.5,108.75,75,60,77.91666666666667
1038,108.75,120,0,191.25,86.25,116.25,78.75,67.5,85.41666666666667
1039,138.75,146.25,-7.5,191.25,90,123.75,90,75,94.16666666666667
1040,135,112.5,11.25,206.25,101.25,131.25,97.5,86.25,97.91666666666667
1041,168.75,86.25,18.75,213.75,101.25,131.25,97.5,93.75,101.25
1042,240,75,7.5,198.75,82.5,112.5,86.25,78.75,97.91666666666667
1043,243.75,45,3.75,187.5,71.25,97.5,63.75,56.25,85.41666666666667
1044,191.25,37.5,7.5,191.25,71.25,97.5,63.75,48.75,78.75
1045,183.75,75,7.5,187.5,63.75,93.75,63.75,56.25,81.25
1046,206.25,101.25,-3.75,176.25,48.75,78.75,56.25,48.75,79.16666666666667
1047,198.75,108.75,-7.5,168.75,41.25,71.25,48.75,41.25,74.58333333333333
1048,157.5,116.25,3.75,180,52.5,86.25,63.75,56.25,79.58333333333333
1049,112.5,142.5,15,195,67.5,105,86.25,78.75,89.16666666666667
1050,97.5,165,15,191.25,67.5,105,86.25,75,89.16666666666667
1051,108.75,146.25,11.25,183.75,63.75,105,78.75,71.25,85.41666666666667
1052,105,86.25,15,183.75,60,105,78.75,67.5,77.91666666666667
1053,138.75,33.75,11.25,176.25,52.5,90,67.5,60,70.0
1054,240,11.25,3.75,168.75,37.5,75,52.5,56.25,71.66666666666667
1055,258.75,-3.75,15,176.25,33.75,67.5,52.5,60,73.33333333333333
1056,221.25,11.25,30,183.75,41.25,75,60,63.75,76.25
1057,210,30,33.75,180,41.25,78.75,63.75,63.75,77.91666666666667
1058,206.25,45,26.25,168.75,26.25,67.5,52.5,56.25,72.08333333333333
1059,187.5,60,30,165,18.75,60,41.25,41.25,67.08333333333333
1060,135,78.75,37.5,168.75,22.5,60,41.25,41.25,65.0
1061,63.75,116.25,33.75,165,22.5,63.75,45,41.25,61.25
1062,45,135,30,165,22.5,67.5,45,45,61.666666666666664
1063,105,138.75,41.25,172.5,33.75,75,52.5,52.5,74.58333333333333
1064,150,135,67.5,191.25,52.5,90,63.75,67.5,90.83333333333333
1065,172.5,112.5,63.75,180,45,78.75,52.5,60,85.0
1066,195,63.75,33.75,142.5,3.75,33.75,11.25,22.5,56.25
1067,187.5,26.25,22.5,127.5,-22.5,3.75,-15,0,36.666666666666664
1068,168.75,41.25,56.25,150,0,22.5,0,7.5,49.583333333333336
1069,165,45,78.75,161.25,15,37.5,11.25,15,58.75
1070,146.25,18.75,71.25,153.75,7.5,33.75,7.5,11.25,50.0
1071,108.75,7.5,63.75,138.75,-3.75,18.75,-7.5,-3.75,35.833333333333336
1072,48.75,3.75,67.5,138.75,0,22.5,-7.5,-7.5,29.583333333333332
1073,7.5,33.75,75,138.75,7.5,33.75,-3.75,-7.5,31.666666666666668
1074,18.75,78.75,78.75,142.5,15,41.25,3.75,-3.75,41.666666666666664
1075,48.75,93.75,71.25,131.25,3.75,33.75,0,-11.25,41.25
1076,33.75,71.25,52.5,108.75,-15,11.25,-22.5,-30,23.333333333333332
1077,52.5,60,45,97.5,-22.5,3.75,-30,-37.5,18.75
1078,138.75,60,45,90,-33.75,-11.25,-45,-48.75,21.666666666666668
1079,153.75,41.25,45,78.75,-48.75,-26.25,-60,-63.75,13.333333333333334
1080,97.5,37.5,45,75,-45,-18.75,-52.5,-60,8.75
1081,63.75,41.25,30,56.25,-56.25,-22.5,-52.5,-63.75,-0.4166666666666667
1082,41.25,26.25,22.5,48.75,-60,-30,-60,-67.5,-8.75
1083,26.25,3.75,26.25,48.75,-60,-33.75,-67.5,-71.25,-14.166666666666666
1084,-3.75,0,45,63.75,-45,-18.75,-52.5,-56.25,-7.5
1085,-11.25,15,86.25,97.5,-7.5,22.5,-11.25,-18.75,19.166666666666668
1086,-7.5,11.25,105,112.5,7.5,45,3.75,-7.5,30.0
1087,3.75,11.25,93.75,97.5,-7.5,26.25,-15,-26.25,20.416666666666668
1088,11.25,15,71.25,75,-22.5,7.5,-37.5,-45,8.333333333333334
1089,26.25,0,56.25,63.75,-30,-3.75,-45,-48.75,2.0833333333333335
1090,71.25,-41.25,33.75,45,-48.75,-18.75,-56.25,-56.25,-7.916666666666667
1091,90,-86.25,26.25,26.25,-67.5,-41.25,-75,-75,-22.5
1092,48.75,-90,37.5,26.25,-67.5,-41.25,-75,-71.25,-25.833333333333332
1093,18.75,-71.25,45,26.25,-67.5,-45,-75,-71.25,-26.666666666666668
1094,11.25,-75,41.25,22.5,-75,-52.5,-86.25,-82.5,-32.916666666666664
1095,-3.75,-82.5,41.25,18.75,-78.75,-52.5,-86.25,-90,-37.083333333333336
1096,-18.75,-56.25,48.75,30,-63.75,-33.75,-71.25,-75,-26.666666666666668
1097,-45,-7.5,60,41.25,-45,-11.25,-52.5,-56.25,-12.916666666666666
1098,-63.75,33.75,56.25,33.75,-45,-7.5,-45,-48.75,-9.583333333333334
1099,-45,56.25,37.5,18.75,-56.25,-15,-56.25,-63.75,-13.75
1100,-30,71.25,30,7.5,-63.75,-26.25,-67.5,-75,-17.083333333333332
1101,0,63.75,26.25,3.75,-71.25,-33.75,-75,-78.75,-18.333333333333332
1102,52.5,3.75,15,-7.5,-82.5,-45,-86.25,-90,-26.666666666666668
1103,52.5,-63.75,11.25,-15,-93.75,-60,-97.5,-97.5,-40.416666666666664
1104,7.5,-97.5,11.25,-15,-93.75,-63.75,-97.5,-101.25,-50.0
1105,-7.5,-90,18.75,-11.25,-90,-56.25,-86.25,-97.5,-46.666666666666664
1106,7.5,-60,18.75,-11.25,-90,-56.25,-86.25,-93.75,-41.25
1107,0,-56.25,15,-15,-93.75,-60,-93.75,-97.5,-44.583333333333336
1108,-37.5,-75,33.75,0,-75,-45,-78.75,-86.25,-40.416666666666664
1109,-67.5,-71.25,56.25,22.5,-52.5,-22.5,-60,-63.75,-28.75
1110,-82.5,-52.5,52.5,22.5,-48.75,-18.75,-56.25,-56.25,-26.666666666666668
1111,-71.25,-56.25,41.25,15,-56.25,-22.5,-60,-63.75,-30.416666666666668
1112,-63.75,-63.75,30,7.5,-60,-26.25,-67.5,-75,-35.416666666666664
1113,-48.75,-78.75,15,-7.5,-75,-45,-82.5,-90,-45.833333333333336
1114,22.5,-93.75,0,-22.5,-93.75,-63.75,-101.25,-101.25,-50.416666666666664
1115,67.5,-86.25,0,-22.5,-93.75,-67.5,-101.25,-101.25,-45.0
1116,45,-60,11.25,-11.25,-82.5,-56.25,-90,-90,-37.083333333333336
1117,41.25,-15,22.5,3.75,-71.25,-45,-78.75,-82.5,-25.0
1118,37.5,3.75,26.25,11.25,-60,-30,-67.5,-71.25,-16.666666666666668
1119,7.5,-11.25,33.75,15,-52.5,-26.25,-63.75,-63.75,-17.916666666666668
1120,-56.25,-45,33.75,15,-52.5,-22.5,-60,-63.75,-27.916666666666668
1121,-116.25,-75,41.25,22.5,-41.25,-11.25,-56.25,-63.75,-33.333333333333336
1122,-127.5,-63.75,45,30,-33.75,-3.75,-52.5,-63.75,-30.0
1123,-105,-18.75,37.5,22.5,-41.25,-15,-63.75,-67.5,-27.916666666666668
1124,-33.75,60,33.75,18.75,-48.75,-22.5,-71.25,-71.25,-15.0
1125,26.25,82.5,11.25,0,-67.5,-45,-90,-82.5,-18.333333333333332
1126,45,37.5,-26.25,-33.75,-101.25,-86.25,-127.5,-112.5,-45.0
1127,48.75,-7.5,-26.25,-30,-101.25,-82.5,-116.25,-105,-46.666666666666664
1128,22.5,-52.5,3.75,-3.75,-67.5,-45,-75,-71.25,-32.083333333333336
1129,15,-63.75,30,22.5,-37.5,-7.5,-41.25,-45,-14.166666666666666
1130,37.5,-45,33.75,26.25,-30,7.5,-30,-41.25,-4.583333333333333
1131,33.75,-52.5,33.75,33.75,-18.75,15,-26.25,-45,-2.9166666666666665
1132,-11.25,-67.5,41.25,45,-7.5,26.25,-18.75,-41.25,-3.75
1133,-41.25,-33.75,52.5,52.5,0,41.25,-3.75,-26.25,4.583333333333333
1134,-67.5,7.5,45,41.25,-7.5,33.75,-11.25,-30,1.25
1135,-71.25,15,30,26.25,-26.25,11.25,-37.5,-52.5,-11.666666666666666
1136,-78.75,3.75,15,11.25,-45,-18.75,-63.75,-75,-27.916666666666668
1137,-45,7.5,7.5,3.75,-60,-37.5,-82.5,-86.25,-32.5
1138,75,37.5,-15,-18.75,-78.75,-56.25,-101.25,-97.5,-28.333333333333332
1139,108.75,67.5,-30,-30,-93.75,-75,-112.5,-105,-30.0
1140,37.5,75,-22.5,-26.25,-86.25,-63.75,-105,-101.25,-32.5
1141,-3.75,52.5,-15,-18.75,-75,-48.75,-90,-90,-32.083333333333336
1142,-11.25,0,-7.5,-11.25,-71.25,-37.5,-78.75,-78.75,-32.916666666666664
1143,-7.5,-30,0,0,-52.5,-18.75,-56.25,-63.75,-25.416666666666668
1144,-33.75,-30,15,18.75,-26.25,15,-26.25,-41.25,-12.083333333333334
1145,-45,-48.75,48.75,56.25,15,60,11.25,-7.5,10.0
1146,-11.25,-45,71.25,78.75,37.5,82.5,30,3.75,27.5
1147,3.75,-33.75,60,71.25,30,75,26.25,0,25.833333333333332
1148,-11.25,-48.75,45,56.25,15,56.25,7.5,-3.75,12.916666666666666
1149,-3.75,-63.75,26.25,33.75,-11.25,30,-18.75,-22.5,-3.3333333333333335
1150,60,-45,7.5,15,-33.75,3.75,-41.25,-45,-8.75
1151,97.5,-30,3.75,3.75,-45,-7.5,-48.75,-52.5,-8.75
1152,56.25,-30,15,11.25,-33.75,7.5,-33.75,-37.5,-5.0
1153,33.75,-11.25,22.5,22.5,-26.25,15,-26.25,-33.75,-0.4166666666666667
1154,37.5,7.5,15,18.75,-30,7.5,-33.75,-45,-2.5
1155,15,7.5,7.5,7.5,-41.25,-7.5,-52.5,-56.25,-13.333333333333334
1156,-26.25,11.25,11.25,7.5,-37.5,-7.5,-52.5,-56.25,-16.666666666666668
1157,-60,18.75,18.75,18.75,-26.25,7.5,-41.25,-45,-12.083333333333334
1158,-75,33.75,22.5,22.5,-18.75,18.75,-33.75,-41.25,-7.916666666666667
1159,-56.25,45,22.5,22.5,-22.5,15,-37.5,-41.25,-5.833333333333333
1160,-26.25,37.5,26.25,26.25,-15,18.75,-33.75,-30,0.4166666666666667
1161,-3.75,11.25,15,15,-22.5,15,-37.5,-30,-4.166666666666667
1162,52.5,-30,-3.75,-3.75,-48.75,-3.75,-48.75,-45,-14.583333333333334
1163,82.5,-52.5,0,0,-45,-3.75,-41.25,-37.5,-10.833333333333334
1164,52.5,-37.5,15,7.5,-33.75,7.5,-26.25,-26.25,-4.583333333333333
1165,30,-30,7.5,0,-45,-3.75,-41.25,-41.25,-13.75
1166,22.5,-26.25,-3.75,-7.5,-52.5,-15,-52.5,-56.25,-21.25
1167,7.5,-7.5,-3.75,-11.25,-48.75,-15,-56.25,-60,-21.666666666666668
1168,-26.25,0,-3.75,-11.25,-48.75,-11.25,-52.5,-52.5,-22.916666666666668
1169,-60,22.5,7.5,0,-37.5,3.75,-41.25,-45,-16.666666666666668
1170,-82.5,41.25,11.25,0,-30,15,-33.75,-41.25,-13.333333333333334
1171,-75,30,7.5,0,-26.25,18.75,-33.75,-41.25,-13.333333333333334
1172,-63.75,7.5,-3.75,-3.75,-33.75,15,-37.5,-45,-18.333333333333332
1173,-22.5,-11.25,-7.5,-7.5,-37.5,7.5,-41.25,-48.75,-18.75
1174,82.5,-15,0,-3.75,-37.5,3.75,-45,-45,-6.666666666666667
1175,120,-30,15,3.75,-33.75,3.75,-41.25,-41.25,-0.4166666666666667
1176,71.25,-33.75,18.75,0,-41.25,3.75,-37.5,-41.25,-6.666666666666667
1177,41.25,-22.5,11.25,-11.25,-56.25,-11.25,-52.5,-56.25,-17.5
1178,41.25,-15,0,-22.5,-63.75,-22.5,-63.75,-63.75,-23.333333333333332
1179,37.5,3.75,7.5,-15,-60,-22.5,-60,-56.25,-18.333333333333332
1180,-3.75,18.75,0,-26.25,-71.25,-30,-67.5,-63.75,-27.083333333333332
1181,-63.75,26.25,7.5,-22.5,-63.75,-15,-56.25,-60,-27.5
1182,-75,30,11.25,-7.5,-45,3.75,-45,-48.75,-19.583333333333332
1183,-60,22.5,0,-15,-48.75,0,-52.5,-52.5,-22.916666666666668
1184,-60,30,-18.75,-26.25,-60,-15,-63.75,-56.25,-30.0
1185,-41.25,33.75,-37.5,-48.75,-82.5,-37.5,-86.25,-78.75,-42.083333333333336
1186,33.75,26.25,-60,-71.25,-108.75,-63.75,-108.75,-101.25,-50.416666666666664
1187,71.25,15,-48.75,-67.5,-105,-60,-105,-93.75,-43.75
1188,48.75,-15,-30,-45,-82.5,-37.5,-78.75,-71.25,-34.583333333333336
1189,37.5,-56.25,-7.5,-30,-63.75,-15,-56.25,-56.25,-27.5
1190,52.5,-86.25,3.75,-18.75,-52.5,-3.75,-45,-45,-21.666666666666668
1191,26.25,-108.75,7.5,-11.25,-52.5,3.75,-41.25,-45,-24.583333333333332
1192,-67.5,-116.25,15,-11.25,-52.5,0,-45,-48.75,-36.25
1193,-131.25,-86.25,26.25,0,-41.25,7.5,-41.25,-41.25,-34.166666666666664
1194,-131.25,-33.75,15,-7.5,-45,-3.75,-52.5,-48.75,-34.166666666666664
1195,-90,15,7.5,-15,-56.25,-11.25,-63.75,-52.5,-29.583333333333332
1196,-3.75,67.5,18.75,0,-41.25,3.75,-45,-33.75,-3.75
1197,45,48.75,11.25,-7.5,-45,-3.75,-48.75,-41.25,-4.583333333333333
1198,75,-22.5,-15,-33.75,-75,-33.75,-75,-67.5,-27.5
1199,101.25,-56.25,-26.25,-48.75,-93.75,-48.75,-93.75,-82.5,-38.75
1200,71.25,-78.75,-15,-37.5,-82.5,-37.5,-78.75,-71.25,-36.666666666666664
1201,22.5,-93.75,-7.5,-33.75,-75,-22.5,-63.75,-60,-37.083333333333336
1202,11.25,-82.5,-3.75,-37.5,-78.75,-26.25,-63.75,-63.75,-38.333333333333336
1203,11.25,-56.25,-15,-45,-86.25,-37.5,-71.25,-71.25,-41.25
1204,-18.75,-22.5,-15,-45,-82.5,-30,-67.5,-67.5,-38.75
1205,-48.75,22.5,0,-33.75,-67.5,-18.75,-60,-60,-29.583333333333332
1206,-75,56.25,-3.75,-37.5,-71.25,-18.75,-63.75,-60,-30.416666666666668
1207,-86.25,56.25,-18.75,-48.75,-82.5,-33.75,-75,-71.25,-40.0
1208,-71.25,33.75,-22.5,-52.5,-90,-41.25,-82.5,-75,-44.583333333333336
1209,-26.25,30,-30,-52.5,-90,-45,-86.25,-78.75,-42.083333333333336
1210,33.75,18.75,-41.25,-67.5,-105,-60,-97.5,-86.25,-45.0
1211,41.25,-45,-37.5,-67.5,-108.75,-60,-93.75,-86.25,-50.833333333333336
1212,-18.75,-105,-22.5,-60,-97.5,-45,-82.5,-82.5,-57.083333333333336
1213,-37.5,-112.5,-18.75,-52.5,-90,-37.5,-82.5,-82.5,-57.083333333333336
1214,-18.75,-105,-30,-60,-93.75,-45,-86.25,-86.25,-58.333333333333336
1215,11.25,-75,-15,-48.75,-82.5,-33.75,-75,-63.75,-42.5
1216,18.75,-26.25,18.75,-18.75,-52.5,-7.5,-48.75,-37.5,-17.083333333333332
1217,-15,-3.75,18.75,-11.25,-48.75,-7.5,-45,-37.5,-16.666666666666668
1218,-56.25,-11.25,7.5,-18.75,-60,-7.5,-52.5,-48.75,-27.5
1219,-63.75,-11.25,0,-30,-63.75,-11.25,-60,-60,-33.333333333333336
1220,-56.25,0,0,-26.25,-60,-11.25,-60,-63.75,-30.833333333333332
1221,-22.5,15,-15,-41.25,-75,-30,-75,-78.75,-35.833333333333336
1222,45,18.75,-37.5,-67.5,-101.25,-60,-105,-101.25,-45.416666666666664
1223,60,-11.25,-52.5,-86.25,-127.5,-82.5,-123.75,-116.25,-60.0
1224,18.75,-30,-37.5,-71.25,-116.25,-67.5,-105,-105,-57.083333333333336
1225,-11.25,-15,-7.5,-45,-90,-41.25,-78.75,-78.75,-40.833333333333336
1226,7.5,33.75,18.75,-26.25,-71.25,-18.75,-52.5,-56.25,-18.333333333333332
1227,52.5,67.5,33.75,-11.25,-48.75,-3.75,-37.5,-41.25,1.25
1228,30,60,41.25,0,-37.5,7.5,-30,-33.75,4.166666666666667
1229,-48.75,48.75,56.25,11.25,-26.25,18.75,-26.25,-30,0.4166666666666667
1230,-97.5,33.75,67.5,15,-22.5,18.75,-26.25,-37.5,-5.416666666666667
1231,-82.5,30,67.5,15,-26.25,11.25,-37.5,-45,-7.5
1232,-71.25,37.5,63.75,11.25,-30,7.5,-45,-45,-7.916666666666667
1233,-26.25,63.75,48.75,3.75,-41.25,3.75,-41.25,-45,-3.75
1234,48.75,63.75,26.25,-18.75,-63.75,-15,-56.25,-60,-8.333333333333334
1235,48.75,22.5,18.75,-33.75,-78.75,-26.25,-63.75,-75,-20.833333333333332
1236,3.75,3.75,30,-22.5,-63.75,-15,-52.5,-63.75,-20.0
1237,-3.75,3.75,45,-7.5,-52.5,-7.5,-45,-52.5,-13.333333333333334
1238,3.75,-15,56.25,3.75,-41.25,-3.75,-41.25,-48.75,-9.583333333333334
1239,7.5,-30,75,22.5,-26.25,7.5,-33.75,-41.25,-2.0833333333333335
1240,3.75,-3.75,97.5,45,-11.25,22.5,-18.75,-26.25,12.083333333333334
1241,-37.5,56.25,105,48.75,0,33.75,-11.25,-18.75,19.583333333333332
1242,-90,90,101.25,48.75,11.25,52.5,3.75,-7.5,23.333333333333332
1243,-75,93.75,75,37.5,7.5,56.25,3.75,-7.5,21.25
1244,-48.75,93.75,52.5,22.5,-7.5,48.75,0,-7.5,17.083333333333332
1245,11.25,123.75,37.5,15,-11.25,45,0,-7.5,23.75
1246,112.5,123.75,3.75,-7.5,-33.75,18.75,-22.5,-30,18.333333333333332
1247,142.5,93.75,-22.5,-22.5,-52.5,-7.5,-41.25,-41.25,5.416666666666667
1248,101.25,78.75,-7.5,-3.75,-37.5,7.5,-22.5,-22.5,10.416666666666666
1249,86.25,71.25,3.75,11.25,-15,33.75,-3.75,-3.75,20.416666666666668
1250,75,63.75,-11.25,-3.75,-26.25,26.25,-15,-18.75,10.0
1251,60,63.75,-22.5,-15,-37.5,15,-26.25,-30,0.8333333333333334
1252,11.25,45,-22.5,-18.75,-37.5,15,-22.5,-26.25,-6.25
1253,-48.75,22.5,-26.25,-22.5,-45,15,-26.25,-30,-17.916666666666668
1254,-75,22.5,-30,-26.25,-48.75,11.25,-33.75,-33.75,-23.75
1255,-48.75,52.5,-37.5,-37.5,-56.25,3.75,-45,-45,-23.75
1256,-3.75,101.25,-41.25,-41.25,-63.75,-7.5,-52.5,-48.75,-17.5
1257,45,116.25,-41.25,-41.25,-63.75,-11.25,-56.25,-48.75,-11.25
1258,112.5,86.25,-48.75,-48.75,-75,-26.25,-67.5,-56.25,-13.75
1259,120,52.5,-45,-52.5,-78.75,-41.25,-75,-63.75,-20.416666666666668
1260,75,41.25,-33.75,-45,-75,-30,-63.75,-52.5,-20.416666666666668
1261,48.75,7.5,-30,-41.25,-71.25,-18.75,-56.25,-56.25,-24.166666666666668
1262,30,-18.75,-22.5,-41.25,-71.25,-18.75,-56.25,-60,-28.75
1263,11.25,-22.5,-15,-45,-71.25,-22.5,-52.5,-56.25,-30.416666666666668
1264,-15,-56.25,0,-26.25,-52.5,3.75,-30,-30,-22.916666666666668
1265,-37.5,-63.75,22.5,3.75,-22.5,33.75,0,0,-7.083333333333333
1266,-60,-26.25,15,-7.5,-30,30,-7.5,-11.25,-10.833333333333334
1267,-52.5,0,-3.75,-30,-52.5,7.5,-30,-33.75,-21.666666666666668
1268,-37.5,3.75,-15,-41.25,-60,0,-45,-48.75,-27.083333333333332
1269,-7.5,-7.5,-33.75,-56.25,-78.75,-22.5,-67.5,-63.75,-37.5
1270,41.25,-33.75,-60,-82.5,-108.75,-60,-105,-97.5,-56.25
1271,48.75,-60,-71.25,-93.75,-123.75,-86.25,-131.25,-120,-70.83333333333333
1272,3.75,-75,-52.5,-82.5,-116.25,-78.75,-123.75,-112.5,-70.83333333333333
1273,-30,-86.25,-41.25,-78.75,-116.25,-78.75,-116.25,-105,-72.5
1274,-37.5,-86.25,-45,-86.25,-120,-78.75,-120,-105,-75.41666666666667
1275,-33.75,-82.5,-48.75,-82.5,-112.5,-67.5,-108.75,-101.25,-70.83333333333333
1276,-71.25,-86.25,-41.25,-71.25,-97.5,-52.5,-93.75,-97.5,-67.91666666666667
1277,-78.75,-37.5,-15,-45,-71.25,-22.5,-63.75,-75,-45.416666666666664
1278,-60,15,7.5,-26.25,-52.5,3.75,-41.25,-52.5,-22.916666666666668
1279,-45,22.5,0,-37.5,-56.25,0,-45,-56.25,-24.166666666666668
1280,-33.75,15,-18.75,-56.25,-71.25,-18.75,-63.75,-71.25,-35.416666666666664
1281,-15,18.75,-41.25,-71.25,-90,-33.75,-82.5,-86.25,-44.583333333333336
1282,15,22.5,-71.25,-101.25,-116.25,-67.5,-116.25,-116.25,-61.25
1283,22.5,-3.75,-82.5,-112.5,-131.25,-86.25,-135,-135,-73.75
1284,3.75,-37.5,-67.5,-101.25,-123.75,-82.5,-127.5,-131.25,-74.16666666666667
1285,-22.5,-75,-45,-82.5,-108.75,-67.5,-108.75,-116.25,-69.58333333333333
1286,0,-56.25,-37.5,-75,-101.25,-63.75,-105,-108.75,-60.833333333333336
1287,41.25,-15,-15,-52.5,-78.75,-41.25,-78.75,-82.5,-35.833333333333336
1288,11.25,-37.5,7.5,-33.75,-60,-18.75,-56.25,-60,-27.5
1289,-63.75,-75,11.25,-30,-56.25,-11.25,-52.5,-52.5,-36.666666666666664
1290,-86.25,-45,15,-22.5,-48.75,0,-45,-45,-30.833333333333332
1291,-26.25,22.5,7.5,-22.5,-45,-3.75,-48.75,-48.75,-18.333333333333332
1292,7.5,33.75,-7.5,-33.75,-56.25,-15,-60,-63.75,-21.666666666666668
1293,0,-7.5,-22.5,-48.75,-67.5,-26.25,-75,-75,-35.833333333333336
1294,45,-30,-37.5,-63.75,-86.25,-48.75,-93.75,-93.75,-45.416666666666664
1295,71.25,-71.25,-37.5,-63.75,-101.25,-75,-123.75,-116.25,-57.5
1296,45,-112.5,-3.75,-30,-97.5,-82.5,-135,-127.5,-60.416666666666664
1297,30,-142.5,60,30,-75,-86.25,-146.25,-138.75,-52.083333333333336
1298,48.75,-172.5,135,112.5,-48.75,-93.75,-168.75,-168.75,-39.583333333333336
1299,63.75,-191.25,213.75,195,-22.5,-105,-191.25,-198.75,-26.25
1300,33.75,-165,281.25,270,15,-97.5,-195,-206.25,-7.083333333333333
1301,-11.25,-105,341.25,352.5,71.25,-60,-172.5,-195,24.583333333333332
1302,-11.25,-18.75,393.75,446.25,150,0,-131.25,-157.5,74.58333333333333
1303,48.75,67.5,435,536.25,228.75,67.5,-75,-105,133.75
1304,116.25,127.5,461.25,622.5,318.75,142.5,0,-37.5,194.58333333333334
1305,165,172.5,476.25,697.5,405,225,75,30,249.58333333333334
1306,240,210,476.25,735,457.5,288.75,146.25,93.75,294.1666666666667
1307,318.75,307.5,480,802.5,543.75,386.25,247.5,183.75,363.3333333333333
1308,363.75,450,483.75,907.5,675,528.75,386.25,303.75,455.4166666666667
1309,363.75,536.25,461.25,952.5,780,671.25,525,416.25,522.9166666666666
1310,363.75,618.75,386.25,881.25,828.75,776.25,641.25,521.25,557.5
1311,397.5,753.75,277.5,772.5,881.25,900,783.75,656.25,602.5
1312,431.25,941.25,236.25,753.75,1005,1095,982.5,836.25,697.9166666666666
1313,416.25,1140,210,761.25,1132.5,1293.75,1192.5,1027.5,797.0833333333334
1314,386.25,1316.25,78.75,645,1173.75,1451.25,1391.25,1218.75,851.25
1315,427.5,1503.75,-123.75,431.25,1166.25,1582.5,1582.5,1410,886.6666666666666
1316,480,1623.75,-311.25,221.25,1173.75,1721.25,1755,1575,915.4166666666666
1317,480,1642.5,-487.5,-33.75,1166.25,1852.5,1908.75,1698.75,914.1666666666666
1318,487.5,1605,-592.5,-217.5,1173.75,1961.25,2025,1777.5,913.3333333333334
1319,468.75,1500,-570,-232.5,1245,2051.25,2085,1788.75,926.25
1320,390,1387.5,-566.25,-255,1286.25,2111.25,2111.25,1762.5,914.1666666666666
1321,307.5,1312.5,-648.75,-397.5,1230,2081.25,2066.25,1691.25,849.1666666666666
1322,225,1181.25,-720,-566.25,1072.5,1908.75,1886.25,1522.5,723.3333333333334
1323,123.75,986.25,-716.25,-675,847.5,1593.75,1575,1256.25,554.5833333333334
1324,3.75,813.75,-675,-757.5,573.75,1207.5,1211.25,975,372.5
1325,-116.25,682.5,-626.25,-832.5,273.75,806.25,843.75,705,192.91666666666666
1326,-195,558.75,-592.5,-903.75,-11.25,438.75,517.5,468.75,31.25
1327,-206.25,423.75,-600,-963.75,-225,168.75,255,270,-97.5
1328,-206.25,285,-585,-930,-281.25,48.75,101.25,123.75,-160.41666666666666
1329,-195,187.5,-536.25,-836.25,-258.75,15,22.5,22.5,-175.41666666666666
1330,-131.25,127.5,-513.75,-768.75,-236.25,3.75,-11.25,-22.5,-172.5
1331,-93.75,71.25,-498.75,-690,-187.5,41.25,15,-7.5,-150.0
1332,-97.5,45,-468.75,-596.25,-135,78.75,48.75,11.25,-123.75
1333,-90,52.5,-427.5,-525,-135,63.75,45,11.25,-111.66666666666667
1334,-75,52.5,-401.25,-476.25,-153.75,33.75,22.5,0,-110.83333333333333
1335,-71.25,33.75,-375,-416.25,-146.25,26.25,15,0,-103.75
1336,-97.5,30,-326.25,-341.25,-116.25,37.5,22.5,7.5,-87.08333333333333
1337,-123.75,71.25,-266.25,-258.75,-63.75,71.25,45,18.75,-56.25
1338,-71.25,168.75,-202.5,-165,7.5,123.75,78.75,45,-1.6666666666666667
1339,-18.75,221.25,-165,-108.75,45,142.5,86.25,48.75,27.916666666666668
1340,-22.5,172.5,-142.5,-71.25,52.5,135,71.25,33.75,25.416666666666668
1341,-7.5,93.75,-116.25,-45,60,127.5,60,22.5,21.666666666666668
1342,60,48.75,-86.25,-22.5,63.75,120,56.25,26.25,29.583333333333332
1343,93.75,30,-60,-3.75,63.75,112.5,52.5,26.25,35.0
1344,48.75,3.75,-48.75,3.75,52.5,97.5,37.5,7.5,22.5
1345,3.75,-33.75,-37.5,11.25,48.75,90,30,-7.5,11.666666666666666
1346,3.75,-30,-11.25,33.75,60,97.5,37.5,0,21.25
1347,63.75,56.25,7.5,52.5,75,108.75,48.75,11.25,47.083333333333336
1348,52.5,90,11.25,60,78.75,116.25,56.25,15,53.333333333333336
1349,-18.75,86.25,7.5,60,75,112.5,45,3.75,41.25
1350,-30,120,7.5,60,75,112.5,41.25,0,42.916666666666664
1351,0,142.5,15,63.75,75,112.5,45,7.5,51.25
1352,26.25,127.5,11.25,71.25,78.75,108.75,37.5,7.5,52.083333333333336
1353,26.25,90,7.5,71.25,71.25,97.5,26.25,0,43.333333333333336
1354,90,63.75,3.75,67.5,63.75,86.25,18.75,-7.5,42.916666666666664
1355,131.25,22.5,0,67.5,56.25,71.25,7.5,-15,37.916666666666664
1356,75,-41.25,3.75,67.5,48.75,60,-3.75,-26.25,20.416666666666668
1357,26.25,-78.75,11.25,71.25,48.75,60,-3.75,-30,11.666666666666666
1358,33.75,-48.75,18.75,75,52.5,67.5,3.75,-18.75,20.416666666666668
1359,90,30,30,86.25,67.5,82.5,22.5,3.75,45.833333333333336
1360,90,67.5,37.5,97.5,75,93.75,33.75,7.5,55.833333333333336
1361,11.25,45,37.5,97.5,75,97.5,30,-7.5,42.916666666666664
1362,-56.25,33.75,33.75,97.5,75,97.5,22.5,-18.75,31.666666666666668
1363,-22.5,86.25,26.25,93.75,75,97.5,22.5,-15,40.416666666666664
1364,33.75,108.75,15,86.25,67.5,93.75,18.75,-11.25,45.833333333333336
1365,67.5,75,18.75,97.5,78.75,101.25,30,0,52.083333333333336
1366,131.25,56.25,26.25,105,82.5,97.5,33.75,11.25,60.416666666666664
1367,165,37.5,18.75,97.5,67.5,82.5,22.5,3.75,55.0
1368,120,22.5,22.5,101.25,67.5,86.25,22.5,0,49.166666666666664
1369,75,22.5,22.5,97.5,67.5,86.25,22.5,-3.75,43.333333333333336
1370,67.5,18.75,30,105,75,97.5,30,3.75,47.5
1371,82.5,33.75,41.25,120,90,108.75,41.25,15,59.166666666666664
1372,52.5,48.75,45,127.5,93.75,112.5,45,15,60.0
1373,-11.25,52.5,45,131.25,97.5,112.5,45,15,54.166666666666664
1374,-37.5,67.5,45,135,101.25,116.25,45,15,54.166666666666664
1375,-22.5,75,41.25,131.25,97.5,112.5,41.25,7.5,53.75
1376,3.75,71.25,30,120,86.25,105,33.75,0,50.0
1377,45,97.5,18.75,116.25,82.5,101.25,30,3.75,55.0
1378,135,112.5,0,105,75,93.75,22.5,0,60.416666666666664
1379,161.25,71.25,-7.5,101.25,67.5,86.25,15,-7.5,54.166666666666664
1380,97.5,33.75,0,105,71.25,86.25,18.75,-7.5,45.0
1381,75,67.5,0,101.25,63.75,82.5,18.75,-15,43.75
1382,82.5,93.75,-22.5,86.25,48.75,67.5,3.75,-26.25,37.083333333333336
1383,71.25,78.75,-45,67.5,30,52.5,-11.25,-41.25,22.5
1384,41.25,93.75,-37.5,78.75,45,67.5,3.75,-30,29.166666666666668
1385,-7.5,127.5,-26.25,93.75,63.75,90,18.75,-18.75,37.916666666666664
1386,-26.25,150,-7.5,116.25,90,112.5,33.75,-7.5,51.25
1387,-7.5,116.25,15,138.75,108.75,127.5,45,11.25,61.666666666666664
1388,30,78.75,45,172.5,142.5,157.5,78.75,45,83.33333333333333
1389,78.75,71.25,52.5,183.75,157.5,176.25,101.25,71.25,99.16666666666667
1390,142.5,33.75,33.75,172.5,146.25,165,90,63.75,94.16666666666667
1391,180,7.5,18.75,161.25,127.5,142.5,71.25,45,83.75
1392,153.75,22.5,22.5,161.25,127.5,138.75,67.5,41.25,81.66666666666667
1393,135,45,15,161.25,123.75,135,63.75,37.5,79.58333333333333
1394,116.25,33.75,15,161.25,123.75,138.75,67.5,33.75,76.66666666666667
1395,97.5,7.5,18.75,168.75,131.25,146.25,78.75,41.25,76.66666666666667
1396,112.5,52.5,37.5,191.25,153.75,176.25,108.75,67.5,100.0
1397,112.5,123.75,60,213.75,180,206.25,135,93.75,125.0
1398,75,131.25,63.75,213.75,183.75,213.75,138.75,93.75,123.75
1399,56.25,108.75,45,206.25,180,210,131.25,86.25,113.75
1400,67.5,101.25,41.25,210,187.5,213.75,127.5,82.5,114.58333333333333
1401,101.25,127.5,37.5,206.25,180,198.75,116.25,75,115.83333333333333
1402,191.25,165,11.25,183.75,157.5,176.25,93.75,60,115.41666666666667
1403,236.25,150,-15,168.75,138.75,157.5,82.5,52.5,107.91666666666667
1404,202.5,120,-15,172.5,138.75,157.5,86.25,52.5,101.66666666666667
1405,168.75,105,-7.5,176.25,142.5,157.5,90,52.5,98.33333333333333
1406,172.5,101.25,-3.75,183.75,146.25,165,93.75,56.25,101.66666666666667
1407,172.5,93.75,11.25,195,161.25,180,105,67.5,109.58333333333333
1408,146.25,93.75,30,217.5,180,202.5,131.25,86.25,120.83333333333333
1409,101.25,112.5,45,236.25,202.5,228.75,157.5,112.5,132.91666666666666
1410,48.75,123.75,30,228.75,198.75,232.5,157.5,108.75,125.41666666666667
1411,67.5,142.5,11.25,213.75,191.25,221.25,146.25,101.25,121.66666666666667
1412,131.25,187.5,3.75,213.75,187.5,221.25,142.5,97.5,131.66666666666666
1413,168.75,210,7.5,210,187.5,217.5,138.75,97.5,137.5
1414,210,168.75,-3.75,202.5,172.5,195,123.75,90,128.75
1415,232.5,93.75,-7.5,195,157.5,180,112.5,82.5,116.25
1416,195,63.75,-7.5,198.75,157.5,183.75,120,82.5,110.41666666666667
1417,172.5,78.75,3.75,210,168.75,198.75,131.25,90,117.08333333333333
1418,176.25,97.5,-3.75,202.5,161.25,191.25,123.75,82.5,114.58333333333333
1419,172.5,108.75,-11.25,198.75,153.75,183.75,116.25,75,110.83333333333333
1420,176.25,142.5,0,210,165,195,123.75,78.75,121.25
1421,176.25,210,18.75,228.75,180,210,138.75,97.5,140.0
1422,150,262.5,18.75,228.75,183.75,213.75,142.5,105,145.0
1423,116.25,258.75,-7.5,210,165,195,123.75,93.75,128.33333333333334
1424,131.25,255,-15,198.75,153.75,187.5,120,93.75,125.0
1425,172.5,247.5,-15,206.25,161.25,195,131.25,105,133.75
1426,262.5,210,-3.75,217.5,165,198.75,142.5,116.25,145.41666666666666
1427,326.25,153.75,3.75,225,168.75,198.75,146.25,123.75,149.58333333333334
1428,277.5,86.25,15,228.75,172.5,202.5,150,127.5,140.0
1429,225,60,22.5,236.25,172.5,210,157.5,135,135.41666666666666
1430,236.25,90,26.25,240,176.25,210,161.25,138.75,142.08333333333334
1431,240,131.25,33.75,247.5,183.75,213.75,161.25,142.5,150.41666666666666
1432,202.5,150,26.25,236.25,172.5,206.25,153.75,135,142.5
1433,165,153.75,30,232.5,168.75,206.25,157.5,131.25,138.33333333333334
1434,153.75,176.25,33.75,236.25,176.25,213.75,165,135,143.33333333333334
1435,165,198.75,26.25,228.75,168.75,213.75,157.5,135,143.75
1436,180,206.25,18.75,221.25,157.5,198.75,142.5,123.75,138.75
1437,191.25,198.75,3.75,206.25,138.75,180,123.75,105,127.5
1438,232.5,168.75,-15,183.75,112.5,150,97.5,86.25,112.91666666666667
1439,273.75,131.25,-22.5,176.25,101.25,135,90,82.5,107.5
1440,255,108.75,-7.5,183.75,105,142.5,101.25,86.25,108.33333333333333
1441,228.75,112.5,7.5,187.5,108.75,146.25,105,86.25,109.16666666666667
1442,236.25,142.5,3.75,180,93.75,135,93.75,78.75,107.08333333333333
1443,258.75,183.75,3.75,180,93.75,131.25,93.75,82.5,114.16666666666667
1444,225,180,15,191.25,105,142.5,105,97.5,117.91666666666667
1445,150,157.5,30,198.75,116.25,150,108.75,97.5,112.08333333333333
1446,108.75,172.5,37.5,206.25,123.75,157.5,112.5,105,113.75
1447,120,198.75,30,195,112.5,153.75,112.5,105,114.16666666666667
1448,146.25,202.5,33.75,195,112.5,153.75,112.5,105,117.91666666666667
1449,183.75,206.25,30,191.25,101.25,142.5,101.25,90,116.25
1450,236.25,195,11.25,168.75,78.75,112.5,71.25,63.75,104.16666666666667
1451,247.5,138.75,-7.5,142.5,52.5,82.5,45,33.75,81.66666666666667
1452,228.75,135,3.75,146.25,56.25,78.75,41.25,33.75,80.41666666666667
1453,217.5,183.75,30,161.25,67.5,93.75,52.5,48.75,95.0
1454,213.75,187.5,41.25,157.5,63.75,90,52.5,48.75,95.0
1455,221.25,146.25,60,165,71.25,93.75,60,52.5,96.66666666666667
1456,183.75,90,86.25,191.25,93.75,116.25,82.5,75,102.08333333333333
1457,105,86.25,105,206.25,112.5,138.75,97.5,90,104.58333333333333
1458,56.25,116.25,116.25,213.75,123.75,150,105,93.75,108.33333333333333
1459,63.75,123.75,112.5,202.5,120,146.25,93.75,78.75,104.58333333333333
1460,82.5,127.5,93.75,180,97.5,116.25,63.75,52.5,90.41666666666667
1461,90,146.25,82.5,168.75,86.25,105,52.5,41.25,85.83333333333333
1462,142.5,138.75,63.75,153.75,75,86.25,37.5,26.25,80.41666666666667
1463,195,108.75,41.25,131.25,52.5,63.75,18.75,11.25,69.16666666666667
1464,168.75,101.25,41.25,127.5,45,48.75,7.5,3.75,60.416666666666664
1465,112.5,97.5,56.25,127.5,45,48.75,7.5,0,55.0
1466,78.75,56.25,63.75,127.5,48.75,56.25,11.25,0,49.166666666666664
1467,71.25,18.75,75,135,60,67.5,18.75,7.5,50.416666666666664
1468,45,11.25,97.5,157.5,86.25,90,41.25,22.5,61.25
1469,11.25,56.25,112.5,168.75,97.5,101.25,52.5,33.75,70.41666666666667
1470,3.75,116.25,123.75,180,105,112.5,63.75,45,83.33333333333333
1471,15,120,131.25,180,108.75,116.25,63.75,48.75,87.08333333333333
1472,48.75,116.25,120,165,97.5,101.25,45,33.75,80.83333333333333
1473,78.75,127.5,93.75,142.5,78.75,82.5,26.25,15,71.66666666666667
1474,101.25,93.75,60,105,45,52.5,0,-11.25,49.583333333333336
1475,127.5,60,56.25,93.75,33.75,37.5,-7.5,-18.75,42.5
1476,123.75,60,67.5,105,41.25,48.75,0,-15,47.916666666666664
1477,93.75,45,71.25,105,41.25,52.5,3.75,-15,44.166666666666664
1478,82.5,37.5,67.5,93.75,37.5,45,-7.5,-22.5,37.083333333333336
1479,71.25,48.75,63.75,90,33.75,41.25,-11.25,-30,34.166666666666664
1480,33.75,60,82.5,105,45,52.5,0,-15,40.416666666666664
1481,-37.5,60,101.25,120,63.75,75,18.75,0,44.583333333333336
1482,-67.5,67.5,97.5,116.25,60,71.25,11.25,-7.5,38.75
1483,-52.5,82.5,75,93.75,41.25,48.75,-15,-33.75,26.666666666666668
1484,-26.25,108.75,67.5,86.25,30,37.5,-22.5,-41.25,26.666666666666668
1485,18.75,135,60,78.75,26.25,33.75,-26.25,-37.5,32.083333333333336
1486,97.5,150,37.5,52.5,3.75,11.25,-48.75,-52.5,27.916666666666668
1487,127.5,116.25,15,33.75,-22.5,-15,-71.25,-71.25,12.5
1488,75,52.5,26.25,41.25,-15,-11.25,-63.75,-71.25,3.75
1489,15,7.5,45,56.25,3.75,3.75,-48.75,-60,2.5
1490,11.25,3.75,56.25,60,11.25,11.25,-37.5,-52.5,7.083333333333333
1491,26.25,7.5,71.25,71.25,18.75,26.25,-26.25,-41.25,17.083333333333332
1492,7.5,-7.5,86.25,86.25,33.75,41.25,-11.25,-30,22.916666666666668
1493,-37.5,-3.75,90,90,37.5,52.5,0,-22.5,22.916666666666668
1494,-56.25,41.25,93.75,93.75,45,63.75,7.5,-22.5,29.583333333333332
1495,-30,97.5,86.25,90,41.25,56.25,-3.75,-26.25,34.583333333333336
1496,-3.75,112.5,71.25,78.75,30,45,-18.75,-33.75,31.25
1497,-18.75,75,63.75,67.5,18.75,37.5,-26.25,-41.25,19.583333333333332
1498,15,33.75,33.75,41.25,-7.5,7.5,-52.5,-63.75,0.8333333333333334
1499,71.25,18.75,26.25,33.75,-18.75,-11.25,-60,-67.5,-0.8333333333333334
1500,67.5,41.25,37.5,41.25,-11.25,-3.75,-52.5,-60,6.666666666666667
1501,26.25,30,37.5,41.25,-11.25,-3.75,-56.25,-67.5,-0.4166666666666667
1502,15,7.5,37.5,37.5,-15,-7.5,-60,-78.75,-7.083333333333333
1503,26.25,26.25,52.5,48.75,-7.5,3.75,-52.5,-71.25,2.9166666666666665
1504,-7.5,22.5,60,52.5,0,11.25,-45,-63.75,3.3333333333333335
1505,-45,56.25,67.5,63.75,15,22.5,-30,-52.5,10.833333333333334
1506,-48.75,112.5,75,75,30,41.25,-15,-33.75,26.25
1507,-56.25,101.25,78.75,86.25,41.25,56.25,-3.75,-22.5,31.25
1508,-48.75,67.5,78.75,86.25,37.5,48.75,-15,-33.75,24.583333333333332
1509,0,45,86.25,86.25,41.25,48.75,-11.25,-30,29.583333333333332
1510,75,11.25,86.25,90,45,52.5,-7.5,-22.5,36.666666666666664
1511,105,-3.75,71.25,78.75,30,37.5,-15,-30,30.416666666666668
1512,63.75,-3.75,60,67.5,18.75,26.25,-22.5,-45,18.333333333333332
1513,33.75,-3.75,60,63.75,15,22.5,-30,-52.5,12.083333333333334
1514,33.75,-7.5,60,67.5,18.75,26.25,-26.25,-52.5,13.333333333333334
1515,26.25,-15,67.5,75,26.25,30,-18.75,-41.25,16.666666666666668
1516,7.5,3.75,75,78.75,30,37.5,-11.25,-33.75,20.833333333333332
1517,-30,30,86.25,86.25,41.25,52.5,0,-26.25,26.666666666666668
1518,-60,63.75,82.5,90,45,63.75,7.5,-22.5,30.0
1519,-52.5,105,86.25,93.75,52.5,67.5,11.25,-18.75,38.333333333333336
1520,-37.5,108.75,75,90,48.75,67.5,7.5,-22.5,37.5
1521,-67.5,56.25,52.5,63.75,26.25,45,-11.25,-37.5,14.166666666666666
1522,-41.25,7.5,22.5,41.25,0,15,-37.5,-63.75,-6.25
1523,63.75,22.5,33.75,56.25,11.25,22.5,-30,-52.5,14.166666666666666
1524,112.5,71.25,67.5,86.25,41.25,48.75,-3.75,-26.25,44.166666666666664
1525,101.25,82.5,86.25,105,56.25,63.75,15,-7.5,55.833333333333336
1526,78.75,63.75,86.25,101.25,52.5,63.75,11.25,-11.25,49.583333333333336
1527,45,45,75,93.75,45,52.5,0,-18.75,37.5
1528,15,41.25,75,90,45,56.25,0,-22.5,33.333333333333336
1529,-33.75,48.75,86.25,97.5,56.25,67.5,11.25,-15,35.416666666666664
1530,-63.75,60,86.25,105,67.5,78.75,22.5,-7.5,38.75
1531,-52.5,67.5,75,101.25,60,75,22.5,-7.5,37.916666666666664
1532,-33.75,75,63.75,93.75,56.25,71.25,15,-11.25,36.666666666666664
1533,-11.25,90,60,86.25,48.75,63.75,7.5,-15,36.666666666666664
1534,41.25,86.25,45,67.5,33.75,48.75,-7.5,-26.25,32.083333333333336
1535,82.5,56.25,37.5,60,22.5,37.5,-15,-33.75,27.5
1536,86.25,60,48.75,71.25,33.75,41.25,-15,-30,32.916666666666664
1537,82.5,75,60,82.5,45,56.25,0,-22.5,42.083333333333336
1538,75,45,60,78.75,45,60,3.75,-22.5,38.333333333333336
1539,60,30,60,78.75,45,60,7.5,-18.75,35.833333333333336
1540,33.75,30,56.25,78.75,45,63.75,7.5,-22.5,32.5
1541,-18.75,56.25,71.25,93.75,60,75,22.5,-11.25,38.75
1542,-63.75,90,78.75,97.5,67.5,86.25,30,0,42.916666666666664
1543,-56.25,108.75,67.5,90,60,82.5,26.25,3.75,42.5
1544,-41.25,90,48.75,78.75,48.75,67.5,11.25,-7.5,32.916666666666664
1545,-7.5,78.75,41.25,67.5,37.5,56.25,0,-15,28.75
1546,86.25,97.5,33.75,56.25,30,45,-7.5,-18.75,35.833333333333336
1547,131.25,67.5,22.5,45,15,30,-18.75,-30,29.166666666666668
1548,97.5,37.5,26.25,41.25,7.5,26.25,-22.5,-45,18.75
1549,71.25,75,30,41.25,7.5,30,-18.75,-41.25,21.666666666666668
1550,63.75,112.5,22.5,33.75,3.75,33.75,-15,-37.5,24.166666666666668
1551,45,120,15,26.25,0,33.75,-15,-41.25,20.416666666666668
1552,7.5,127.5,18.75,30,3.75,37.5,-11.25,-41.25,19.166666666666668
1553,-33.75,135,33.75,48.75,26.25,56.25,3.75,-30,26.666666666666668
1554,-60,138.75,41.25,56.25,37.5,67.5,11.25,-22.5,30.0
1555,-37.5,146.25,41.25,63.75,41.25,71.25,15,-18.75,35.833333333333336
1556,-22.5,108.75,45,67.5,45,71.25,18.75,-3.75,36.666666666666664
1557,-30,56.25,45,60,33.75,56.25,3.75,-15,23.333333333333332
1558,41.25,45,33.75,52.5,18.75,37.5,-15,-26.25,20.833333333333332
1559,127.5,48.75,41.25,56.25,22.5,37.5,-7.5,-15,34.583333333333336
1560,108.75,15,52.5,63.75,26.25,41.25,-3.75,-15,32.083333333333336
1561,63.75,-11.25,60,67.5,33.75,52.5,11.25,-7.5,30.0
1562,78.75,3.75,48.75,60,26.25,52.5,11.25,-11.25,30.0
1563,67.5,11.25,37.5,52.5,22.5,48.75,3.75,-18.75,25.0
1564,30,37.5,48.75,60,33.75,63.75,15,-11.25,30.833333333333332
1565,-11.25,71.25,56.25,67.5,37.5,71.25,22.5,-3.75,34.583333333333336
1566,-37.5,90,63.75,75,45,78.75,30,3.75,38.75
1567,-41.25,90,63.75,75,45,78.75,30,0,37.916666666666664
1568,-45,67.5,48.75,56.25,26.25,60,11.25,-11.25,23.75
1569,-26.25,78.75,30,37.5,7.5,33.75,-11.25,-30,13.333333333333334
1570,45,86.25,7.5,18.75,-11.25,11.25,-33.75,-48.75,8.333333333333334
1571,82.5,41.25,-7.5,3.75,-33.75,-7.5,-52.5,-63.75,-4.166666666666667
1572,56.25,30,0,3.75,-30,-7.5,-48.75,-63.75,-6.666666666666667
1573,30,48.75,15,15,-22.5,0,-41.25,-56.25,-1.25
1574,18.75,52.5,18.75,15,-22.5,0,-41.25,-60,-2.0833333333333335
1575,41.25,78.75,26.25,22.5,-15,11.25,-30,-45,10.0
1576,41.25,82.5,33.75,33.75,-3.75,26.25,-15,-26.25,19.166666666666668
1577,-26.25,48.75,45,37.5,0,37.5,-7.5,-22.5,12.5
1578,-86.25,52.5,52.5,45,7.5,48.75,0,-15,11.666666666666666
1579,-60,90,56.25,60,26.25,60,11.25,-3.75,26.666666666666668
1580,-15,78.75,56.25,60,30,63.75,18.75,3.75,32.916666666666664
1581,-15,33.75,41.25,37.5,7.5,45,0,-15,15.0
1582,7.5,3.75,15,15,-22.5,11.25,-33.75,-41.25,-5.0
1583,41.25,-22.5,-3.75,-3.75,-45,-15,-56.25,-56.25,-17.916666666666668
1584,26.25,-22.5,3.75,0,-45,-15,-48.75,-52.5,-17.083333333333332
1585,33.75,15,18.75,11.25,-33.75,3.75,-30,-41.25,-2.5
1586,60,45,22.5,15,-26.25,7.5,-33.75,-45,5.0
1587,78.75,48.75,33.75,22.5,-15,15,-30,-33.75,13.333333333333334
1588,60,56.25,37.5,26.25,-15,11.25,-30,-30,12.916666666666666
1589,-18.75,52.5,45,33.75,-7.5,15,-30,-30,6.666666666666667
1590,-75,37.5,56.25,41.25,3.75,30,-18.75,-26.25,5.416666666666667
1591,-60,52.5,52.5,33.75,0,30,-18.75,-26.25,7.083333333333333
1592,-33.75,93.75,37.5,18.75,-15,15,-30,-37.5,5.416666666666667
1593,-3.75,116.25,30,18.75,-15,15,-30,-37.5,10.416666666666666
1594,63.75,86.25,18.75,11.25,-26.25,3.75,-41.25,-45,7.916666666666667
1595,105,41.25,3.75,-7.5,-48.75,-22.5,-60,-63.75,-5.833333333333333
1596,78.75,52.5,-3.75,-22.5,-67.5,-41.25,-75,-82.5,-17.916666666666668
1597,45,105,-11.25,-26.25,-71.25,-41.25,-78.75,-82.5,-17.916666666666668
1598,18.75,112.5,-18.75,-33.75,-75,-45,-78.75,-86.25,-22.916666666666668
1599,3.75,60,-11.25,-30,-75,-45,-82.5,-82.5,-29.166666666666668
1600,-7.5,22.5,15,-7.5,-48.75,-26.25,-63.75,-63.75,-20.0
1601,-18.75,7.5,56.25,33.75,-7.5,15,-26.25,-26.25,3.75
1602,-33.75,11.25,71.25,48.75,7.5,37.5,-7.5,-7.5,14.166666666666666
1603,-48.75,22.5,60,37.5,-3.75,30,-15,-18.75,7.083333333333333
1604,-33.75,18.75,45,22.5,-18.75,15,-26.25,-26.25,-0.4166666666666667
1605,3.75,26.25,37.5,18.75,-18.75,15,-26.25,-26.25,3.3333333333333335
1606,56.25,33.75,22.5,11.25,-26.25,3.75,-33.75,-33.75,3.75
1607,97.5,18.75,15,-3.75,-45,-15,-48.75,-48.75,-3.3333333333333335
1608,82.5,0,22.5,0,-41.25,-11.25,-41.25,-48.75,-4.166666666666667
1609,41.25,11.25,33.75,7.5,-33.75,-3.75,-30,-41.25,-1.6666666666666667
1610,18.75,33.75,33.75,7.5,-41.25,-11.25,-45,-56.25,-6.666666666666667
1611,7.5,45,45,15,-33.75,-3.75,-41.25,-52.5,-2.0833333333333335
1612,-18.75,56.25,52.5,18.75,-30,3.75,-33.75,-45,0.4166666666666667
1613,-60,97.5,60,22.5,-22.5,7.5,-30,-45,3.3333333333333335
1614,-97.5,150,60,22.5,-18.75,15,-30,-41.25,6.666666666666667
1615,-86.25,183.75,60,18.75,-18.75,11.25,-30,-41.25,10.833333333333334
1616,-37.5,176.25,52.5,15,-22.5,11.25,-33.75,-48.75,12.5
1617,-15,135,67.5,33.75,-7.5,22.5,-22.5,-37.5,19.583333333333332
1618,33.75,90,78.75,37.5,-7.5,22.5,-26.25,-37.5,21.25
1619,82.5,48.75,75,30,-18.75,7.5,-37.5,-41.25,16.25
1620,67.5,15,93.75,48.75,0,22.5,-18.75,-22.5,22.916666666666668
1621,33.75,-7.5,105,60,11.25,26.25,-11.25,-18.75,22.083333333333332
1622,11.25,-11.25,101.25,56.25,3.75,18.75,-22.5,-30,14.166666666666666
1623,15,26.25,105,56.25,3.75,18.75,-22.5,-30,19.166666666666668
1624,3.75,71.25,120,71.25,15,30,-15,-22.5,30.416666666666668
1625,-37.5,90,127.5,75,18.75,33.75,-11.25,-22.5,30.416666666666668
1626,-67.5,112.5,127.5,71.25,18.75,37.5,-11.25,-22.5,29.583333333333332
1627,-52.5,157.5,120,67.5,11.25,30,-15,-22.5,32.916666666666664
1628,-18.75,210,97.5,48.75,0,26.25,-22.5,-22.5,35.416666666666664
1629,15,266.25,67.5,26.25,-11.25,15,-30,-30,35.416666666666664
1630,101.25,303.75,37.5,15,-18.75,7.5,-33.75,-30,42.5
1631,176.25,270,30,11.25,-22.5,7.5,-33.75,-26.25,45.833333333333336
1632,112.5,161.25,48.75,37.5,3.75,30,-3.75,-3.75,42.916666666666664
1633,33.75,86.25,63.75,63.75,30,60,22.5,18.75,42.083333333333336
1634,45,86.25,60,63.75,30,63.75,30,26.25,45.0
1635,56.25,86.25,52.5,52.5,18.75,56.25,18.75,18.75,40.0
1636,22.5,75,33.75,41.25,7.5,45,11.25,3.75,26.666666666666668
1637,-60,56.25,30,33.75,3.75,41.25,3.75,0,12.083333333333334
1638,-105,41.25,15,18.75,-11.25,26.25,-15,-18.75,-5.416666666666667
1639,-52.5,90,11.25,18.75,-3.75,30,-15,-15,7.083333333333333
1640,18.75,116.25,15,22.5,0,33.75,-3.75,0,22.5
1641,33.75,101.25,3.75,7.5,-15,22.5,-15,-7.5,14.583333333333334
1642,78.75,131.25,-15,-11.25,-37.5,0,-37.5,-30,8.75
1643,131.25,168.75,-30,-30,-60,-30,-60,-52.5,4.166666666666667
1644,86.25,146.25,-37.5,-52.5,-82.5,-48.75,-75,-63.75,-14.166666666666666
1645,37.5,108.75,-22.5,-41.25,-75,-37.5,-63.75,-56.25,-16.666666666666668
1646,56.25,93.75,-3.75,-15,-52.5,-18.75,-52.5,-48.75,-4.583333333333333
1647,75,97.5,15,3.75,-37.5,-3.75,-37.5,-41.25,7.916666666666667
1648,48.75,93.75,26.25,11.25,-26.25,7.5,-26.25,-30,11.666666666666666
1649,0,86.25,37.5,18.75,-18.75,15,-18.75,-22.5,10.833333333333334
1650,-41.25,78.75,52.5,30,-7.5,26.25,-11.25,-11.25,12.916666666666666
1651,-52.5,52.5,67.5,41.25,3.75,37.5,0,0,16.666666666666668
1652,-45,22.5,63.75,45,3.75,37.5,-3.75,-7.5,12.916666666666666
1653,-37.5,15,48.75,30,-11.25,18.75,-22.5,-26.25,1.6666666666666667
1654,30,26.25,22.5,-3.75,-45,-15,-56.25,-48.75,-10.0
1655,82.5,7.5,0,-33.75,-75,-45,-82.5,-75,-24.583333333333332
1656,45,-26.25,-3.75,-41.25,-82.5,-56.25,-90,-82.5,-37.5
1657,-7.5,-45,-3.75,-45,-82.5,-60,-93.75,-90,-47.5
1658,-3.75,-37.5,3.75,-33.75,-75,-48.75,-86.25,-86.25,-40.833333333333336
1659,3.75,-15,18.75,-22.5,-67.5,-37.5,-71.25,-75,-29.583333333333332
1660,-3.75,0,18.75,-22.5,-63.75,-37.5,-71.25,-71.25,-27.916666666666668
1661,-52.5,-3.75,15,-26.25,-63.75,-33.75,-67.5,-71.25,-33.75
1662,-105,7.5,15,-26.25,-63.75,-33.75,-67.5,-71.25,-38.333333333333336
1663,-108.75,11.25,11.25,-33.75,-71.25,-41.25,-75,-75,-42.5
1664,-90,0,11.25,-30,-71.25,-37.5,-78.75,-75,-41.25
1665,-60,15,11.25,-26.25,-63.75,-33.75,-71.25,-67.5,-32.916666666666664
1666,7.5,18.75,-3.75,-41.25,-82.5,-52.5,-86.25,-78.75,-35.416666666666664
1667,82.5,3.75,-7.5,-45,-86.25,-60,-90,-78.75,-31.25
1668,75,-7.5,3.75,-33.75,-78.75,-48.75,-78.75,-67.5,-26.25
1669,33.75,0,15,-30,-71.25,-45,-71.25,-63.75,-25.833333333333332
1670,15,15,11.25,-33.75,-78.75,-52.5,-78.75,-75,-30.833333333333332
1671,7.5,11.25,7.5,-37.5,-82.5,-56.25,-86.25,-82.5,-35.416666666666664
1672,-7.5,7.5,15,-30,-75,-48.75,-78.75,-71.25,-32.083333333333336
1673,-52.5,11.25,11.25,-30,-71.25,-41.25,-75,-67.5,-35.0
1674,-112.5,7.5,18.75,-22.5,-63.75,-33.75,-71.25,-67.5,-38.333333333333336
1675,-108.75,15,33.75,-11.25,-52.5,-18.75,-60,-56.25,-28.75
1676,-67.5,37.5,30,-15,-56.25,-26.25,-63.75,-60,-24.583333333333332
1677,-41.25,56.25,18.75,-22.5,-63.75,-37.5,-75,-71.25,-26.25
1678,11.25,45,0,-37.5,-78.75,-56.25,-93.75,-90,-33.333333333333336
1679,60,15,-18.75,-56.25,-101.25,-78.75,-112.5,-101.25,-43.75
1680,33.75,-37.5,-15,-56.25,-101.25,-78.75,-108.75,-105,-52.083333333333336
1681,3.75,-60,3.75,-37.5,-90,-67.5,-105,-105,-50.833333333333336
1682,0,-60,26.25,-11.25,-86.25,-78.75,-120,-123.75,-50.416666666666664
1683,18.75,-52.5,67.5,33.75,-78.75,-97.5,-142.5,-150,-44.583333333333336
1684,3.75,-56.25,142.5,112.5,-48.75,-93.75,-157.5,-165,-29.166666666666668
1685,-18.75,-48.75,236.25,210,-3.75,-86.25,-165,-180,-6.25
1686,-37.5,-37.5,322.5,300,33.75,-82.5,-168.75,-187.5,15.833333333333334
1687,-45,-33.75,382.5,371.25,71.25,-67.5,-165,-183.75,36.666666666666664
1688,-15,-11.25,420,446.25,123.75,-41.25,-146.25,-168.75,67.5
1689,22.5,56.25,438.75,517.5,172.5,-11.25,-127.5,-150,102.08333333333333
1690,123.75,142.5,461.25,592.5,243.75,45,-78.75,-101.25,158.75
1691,247.5,195,487.5,671.25,326.25,120,-7.5,-33.75,222.91666666666666
1692,262.5,236.25,513.75,731.25,397.5,195,71.25,33.75,271.25
1693,240,270,532.5,791.25,468.75,285,161.25,116.25,318.3333333333333
1694,285,337.5,551.25,892.5,592.5,423.75,300,236.25,402.0833333333333
1695,345,446.25,536.25,956.25,712.5,573.75,446.25,363.75,486.6666666666667
1696,333.75,540,476.25,907.5,776.25,686.25,570,476.25,529.5833333333334
1697,307.5,656.25,371.25,802.5,828.75,810,708.75,607.5,565.8333333333334
1698,318.75,825,292.5,742.5,926.25,978.75,885,765,637.0833333333334
1699,386.25,1042.5,251.25,735,1050,1166.25,1072.5,930,737.0833333333334
1700,446.25,1275,142.5,641.25,1106.25,1316.25,1252.5,1106.25,809.5833333333334
1701,468.75,1496.25,-67.5,408.75,1083.75,1440,1436.25,1297.5,840.4166666666666
1702,528.75,1608.75,-296.25,153.75,1057.5,1560,1608.75,1470,854.5833333333334
1703,596.25,1623.75,-506.25,-123.75,1023.75,1668.75,1751.25,1593.75,847.5
1704,577.5,1665,-667.5,-367.5,1016.25,1785,1886.25,1695,843.3333333333334
1705,483.75,1657.5,-697.5,-431.25,1083.75,1908.75,1995,1747.5,860.8333333333334
1706,412.5,1556.25,-660,-408.75,1173.75,2017.5,2058.75,1751.25,877.9166666666666
1707,337.5,1432.5,-708.75,-487.5,1181.25,2047.5,2062.5,1713.75,842.0833333333334
1708,243.75,1327.5,-798.75,-641.25,1087.5,1957.5,1968.75,1616.25,751.25
1709,131.25,1196.25,-802.5,-731.25,930,1740,1740,1421.25,625.0
1710,-22.5,1016.25,-750,-772.5,716.25,1410,1410,1151.25,462.0833333333333
1711,-116.25,840,-723.75,-855,412.5,997.5,1035,866.25,272.9166666666667
1712,-138.75,682.5,-723.75,-963.75,67.5,562.5,645,581.25,79.16666666666667
1713,-161.25,540,-720,-1038.75,-210,217.5,330,345,-77.5
1714,-127.5,412.5,-693.75,-1035,-337.5,22.5,131.25,176.25,-161.25
1715,-86.25,273.75,-630,-941.25,-333.75,-48.75,18.75,56.25,-187.91666666666666
1716,-123.75,135,-573.75,-836.25,-292.5,-63.75,-33.75,-18.75,-200.83333333333334
1717,-157.5,67.5,-525,-727.5,-225,-22.5,-18.75,-30,-182.08333333333334
1718,-142.5,67.5,-487.5,-622.5,-161.25,26.25,18.75,-11.25,-145.83333333333334
1719,-90,123.75,-450,-543.75,-146.25,37.5,33.75,7.5,-114.16666666666667
1720,-71.25,161.25,-408.75,-483.75,-153.75,26.25,26.25,7.5,-99.58333333333333
1721,-123.75,142.5,-363.75,-412.5,-142.5,22.5,18.75,3.75,-95.0
1722,-153.75,168.75,-311.25,-326.25,-101.25,37.5,26.25,7.5,-72.5
1723,-120,240,-255,-243.75,-52.5,67.5,48.75,33.75,-31.25
1724,-67.5,258.75,-210,-168.75,0,101.25,78.75,60,5.833333333333333
1725,-33.75,210,-153.75,-93.75,45,131.25,105,78.75,32.083333333333336
1726,41.25,127.5,-90,-22.5,90,161.25,131.25,101.25,60.0
1727,101.25,41.25,-41.25,30,112.5,161.25,127.5,97.5,70.0
1728,75,33.75,-3.75,52.5,116.25,150,116.25,82.5,69.16666666666667
1729,41.25,56.25,15,56.25,105,138.75,93.75,60,62.916666666666664
1730,48.75,52.5,22.5,60,93.75,112.5,63.75,30,53.75
1731,60,56.25,33.75,71.25,86.25,97.5,52.5,18.75,52.916666666666664
1732,33.75,48.75,45,78.75,86.25,97.5,48.75,22.5,51.25
1733,-22.5,37.5,52.5,86.25,82.5,93.75,45,15,43.333333333333336
1734,-75,45,60,90,86.25,97.5,41.25,11.25,39.583333333333336
1735,-78.75,82.5,60,93.75,82.5,93.75,33.75,7.5,41.666666666666664
1736,-48.75,101.25,56.25,93.75,82.5,90,30,7.5,45.833333333333336
1737,-30,90,52.5,93.75,75,82.5,22.5,3.75,43.333333333333336
1738,18.75,90,41.25,82.5,56.25,60,7.5,-7.5,38.75
1739,82.5,75,22.5,67.5,33.75,37.5,-15,-33.75,30.0
1740,67.5,48.75,11.25,56.25,15,15,-33.75,-52.5,14.166666666666666
1741,18.75,37.5,22.5,60,18.75,18.75,-33.75,-56.25,9.583333333333334
1742,30,41.25,30,71.25,30,26.25,-26.25,-48.75,17.083333333333332
1743,78.75,86.25,60,97.5,52.5,48.75,-3.75,-26.25,43.75
1744,63.75,112.5,78.75,116.25,67.5,63.75,11.25,-15,55.416666666666664
1745,-11.25,97.5,90,127.5,75,75,18.75,-11.25,51.25
1746,-30,105,93.75,135,82.5,86.25,30,0,55.833333333333336
1747,-18.75,120,93.75,135,78.75,86.25,26.25,-3.75,57.5
1748,-15,112.5,78.75,123.75,67.5,71.25,11.25,-18.75,47.916666666666664
1749,-18.75,105,67.5,116.25,56.25,56.25,-3.75,-22.5,39.583333333333336
1750,22.5,97.5,45,97.5,41.25,33.75,-22.5,-33.75,31.25
1751,86.25,37.5,37.5,90,30,22.5,-26.25,-37.5,26.666666666666668
1752,90,-26.25,56.25,108.75,48.75,45,0,-15,34.166666666666664
1753,86.25,7.5,86.25,138.75,75,75,30,7.5,56.25
1754,105,63.75,101.25,153.75,90,86.25,41.25,18.75,73.33333333333333
1755,63.75,52.5,93.75,146.25,82.5,75,26.25,3.75,60.416666666666664
1756,-18.75,18.75,97.5,142.5,75,71.25,26.25,0,45.833333333333336
1757,-63.75,22.5,101.25,153.75,82.5,78.75,33.75,3.75,45.833333333333336
1758,-37.5,86.25,105,168.75,101.25,97.5,48.75,18.75,65.41666666666667
1759,15,153.75,108.75,180,116.25,116.25,63.75,33.75,87.5
1760,26.25,153.75,105,172.5,105,105,52.5,22.5,82.5
1761,0,112.5,90,157.5,86.25,78.75,22.5,-3.75,60.416666666666664
1762,60,116.25,67.5,142.5,67.5,52.5,-3.75,-22.5,53.333333333333336
1763,135,127.5,52.5,131.25,52.5,33.75,-18.75,-33.75,53.333333333333336
1764,116.25,116.25,52.5,127.5,45,26.25,-22.5,-33.75,47.5
1765,75,116.25,52.5,127.5,48.75,33.75,-11.25,-30,45.833333333333336
1766,45,116.25,48.75,123.75,52.5,41.25,-3.75,-26.25,44.166666666666664
1767,30,90,52.5,131.25,60,56.25,3.75,-18.75,45.0
1768,48.75,90,75,157.5,86.25,82.5,30,3.75,63.75
1769,45,123.75,97.5,183.75,112.5,108.75,56.25,22.5,83.33333333333333
1770,18.75,150,101.25,191.25,123.75,120,60,26.25,87.91666666666667
1771,18.75,142.5,101.25,198.75,127.5,123.75,60,37.5,90.0
1772,33.75,116.25,108.75,210,138.75,135,71.25,52.5,96.25
1773,52.5,112.5,112.5,217.5,150,138.75,82.5,60,102.91666666666667
1774,105,135,97.5,202.5,135,123.75,71.25,52.5,102.5
1775,135,101.25,71.25,180,108.75,97.5,48.75,33.75,86.25
1776,131.25,67.5,75,183.75,108.75,93.75,48.75,33.75,82.5
1777,120,82.5,93.75,202.5,123.75,108.75,56.25,37.5,91.66666666666667
1778,105,93.75,86.25,198.75,123.75,112.5,60,33.75,90.41666666666667
1779,101.25,93.75,82.5,198.75,123.75,112.5,63.75,41.25,90.83333333333333
1780,86.25,78.75,93.75,210,138.75,131.25,82.5,52.5,97.08333333333333
1781,33.75,60,105,228.75,157.5,150,97.5,63.75,99.58333333333333
1782,-18.75,78.75,123.75,247.5,176.25,168.75,112.5,75,107.08333333333333
1783,-30,97.5,131.25,255,183.75,176.25,112.5,75,111.25
1784,3.75,101.25,105,240,165,153.75,90,56.25,101.66666666666667
1785,37.5,123.75,86.25,225,150,138.75,75,41.25,97.5
1786,101.25,157.5,71.25,217.5,142.5,131.25,67.5,37.5,102.91666666666667
1787,153.75,146.25,45,198.75,120,105,48.75,26.25,93.75
1788,135,135,45,195,120,101.25,48.75,26.25,89.58333333333333
1789,101.25,161.25,48.75,198.75,123.75,108.75,52.5,26.25,91.25
1790,105,195,56.25,206.25,127.5,112.5,56.25,33.75,99.16666666666667
1791,138.75,198.75,71.25,225,146.25,135,86.25,63.75,118.33333333333333
1792,150,191.25,82.5,243.75,165,153.75,105,75,129.58333333333334
1793,78.75,180,97.5,255,176.25,168.75,112.5,78.75,127.5
1794,30,172.5,112.5,270,191.25,180,120,86.25,129.16666666666666
1795,56.25,180,123.75,285,206.25,195,135,101.25,142.5
1796,93.75,210,108.75,281.25,202.5,191.25,131.25,105,147.08333333333334
1797,105,228.75,86.25,266.25,191.25,180,120,101.25,142.08333333333334
